# logN	pdf
10.1595	0.0028656795768650
10.1605	0.0028615316185778
10.1615	0.0028573836602906
10.1625	0.0028532357020034
10.1635	0.0028490877437162
10.1645	0.0028449397854291
10.1655	0.0028407918271419
10.1665	0.0028366438688547
10.1675	0.0028324959105675
10.1685	0.0028283479522803
10.1695	0.0028241999939931
10.1705	0.0028200520357059
10.1715	0.0028159040774188
10.1725	0.0028117561191316
10.1735	0.0028076081608444
10.1745	0.0028034602025572
10.1755	0.0027993122442700
10.1765	0.0027951642859828
10.1775	0.0027910163276956
10.1785	0.0027868683694085
10.1795	0.0027827204111213
10.1805	0.0027785724528341
10.1815	0.0027744244945469
10.1825	0.0027702765362597
10.1835	0.0027661285779725
10.1845	0.0027619806196853
10.1855	0.0027578326613982
10.1865	0.0027536847031110
10.1875	0.0027495367448238
10.1885	0.0027453887865366
10.1895	0.0027412408282494
10.1905	0.0027370928699622
10.1915	0.0027329449116751
10.1925	0.0027287969533879
10.1935	0.0027246489951007
10.1945	0.0027205010368135
10.1955	0.0027163530785263
10.1965	0.0027122051202391
10.1975	0.0027080571619519
10.1985	0.0027039092036648
10.1995	0.0026997612453776
10.2005	0.0026956132870904
10.2015	0.0026914653288032
10.2025	0.0026873173705160
10.2035	0.0026831694122288
10.2045	0.0026790214539416
10.2055	0.0026748734956545
10.2065	0.0026707255373673
10.2075	0.0026665775790801
10.2085	0.0026624296207929
10.2095	0.0026582816625057
10.2105	0.0026541337042185
10.2115	0.0026499857459313
10.2125	0.0026458377876442
10.2135	0.0026416898293570
10.2145	0.0026375418710698
10.2155	0.0026333939127826
10.2165	0.0026292459544954
10.2175	0.0026250979962082
10.2185	0.0026209500379210
10.2195	0.0026168020796339
10.2205	0.0026126541213467
10.2215	0.0026085061630595
10.2225	0.0026043582047723
10.2235	0.0026002102464851
10.2245	0.0025960622881979
10.2255	0.0025919143299107
10.2265	0.0025877663716236
10.2275	0.0025836184133364
10.2285	0.0025794704550492
10.2295	0.0025753224967620
10.2305	0.0025711745384748
10.2315	0.0025670265801876
10.2325	0.0025628786219004
10.2335	0.0025587306636133
10.2345	0.0025545827053261
10.2355	0.0025504347470389
10.2365	0.0025462867887517
10.2375	0.0025421388304645
10.2385	0.0025379908721773
10.2395	0.0025338429138901
10.2405	0.0025296949556030
10.2415	0.0025255469973158
10.2425	0.0025213990390286
10.2435	0.0025172510807414
10.2445	0.0025131031224542
10.2455	0.0025089551641670
10.2465	0.0025048072058798
10.2475	0.0025006592475927
10.2485	0.0024965112893055
10.2495	0.0024923633310183
10.2505	0.0024882153727311
10.2515	0.0024840674144439
10.2525	0.0024799194561567
10.2535	0.0024757714978695
10.2545	0.0024716235395824
10.2555	0.0024674755812952
10.2565	0.0024633276230080
10.2575	0.0024591796647208
10.2585	0.0024550317064336
10.2595	0.0024508837481464
10.2605	0.0024467357898592
10.2615	0.0024425878315721
10.2625	0.0024384398732849
10.2635	0.0024342919149977
10.2645	0.0024301439567105
10.2655	0.0024259959984233
10.2665	0.0024218480401361
10.2675	0.0024177000818489
10.2685	0.0024135521235618
10.2695	0.0024094041652746
10.2705	0.0024052562069874
10.2715	0.0024011082487002
10.2725	0.0023969602904130
10.2735	0.0023928123321258
10.2745	0.0023886643738386
10.2755	0.0023845164155515
10.2765	0.0023803684572643
10.2775	0.0023762204989771
10.2785	0.0023720725406899
10.2795	0.0023679245824027
10.2805	0.0023637766241155
10.2815	0.0023596286658283
10.2825	0.0023554807075412
10.2835	0.0023513327492540
10.2845	0.0023471847909668
10.2855	0.0023430368326796
10.2865	0.0023388888743924
10.2875	0.0023347409161052
10.2885	0.0023305929578180
10.2895	0.0023264449995309
10.2905	0.0023222970412437
10.2915	0.0023181490829565
10.2925	0.0023140011246693
10.2935	0.0023098531663821
10.2945	0.0023057052080949
10.2955	0.0023015572498078
10.2965	0.0022974092915206
10.2975	0.0022932613332334
10.2985	0.0022891133749462
10.2995	0.0022849654166590
10.3005	0.0022808174583718
10.3015	0.0022766695000846
10.3025	0.0022725215417975
10.3035	0.0022683735835103
10.3045	0.0022642256252231
10.3055	0.0022600776669359
10.3065	0.0022559297086487
10.3075	0.0022517817503615
10.3085	0.0022820542365586
10.3095	0.0023138552500937
10.3105	0.0023456562636287
10.3115	0.0023774572771638
10.3125	0.0024092582906989
10.3135	0.0024410593042340
10.3145	0.0024728603177691
10.3155	0.0025046613313042
10.3165	0.0025364623448393
10.3175	0.0025682633583744
10.3185	0.0026000643719095
10.3195	0.0026318653854446
10.3205	0.0026636663989796
10.3215	0.0026954674125147
10.3225	0.0027272684260498
10.3235	0.0027590694395849
10.3245	0.0027908704531200
10.3255	0.0028226714666551
10.3265	0.0028544724801902
10.3275	0.0028862734937253
10.3285	0.0029180745072604
10.3295	0.0029498755207955
10.3305	0.0029816765343306
10.3315	0.0030134775478656
10.3325	0.0030452785614007
10.3335	0.0030770795749358
10.3345	0.0031088805884709
10.3355	0.0031406816020060
10.3365	0.0031724826155411
10.3375	0.0032042836290762
10.3385	0.0032360846426113
10.3395	0.0032678856561464
10.3405	0.0032996866696815
10.3415	0.0033314876832165
10.3425	0.0033632886967516
10.3435	0.0033950897102867
10.3445	0.0034268907238218
10.3455	0.0034586917373569
10.3465	0.0034904927508920
10.3475	0.0035222937644271
10.3485	0.0035540947779622
10.3495	0.0035858957914973
10.3505	0.0036176968050324
10.3515	0.0036494978185674
10.3525	0.0036812988321025
10.3535	0.0037130998456376
10.3545	0.0037449008591727
10.3555	0.0037767018727078
10.3565	0.0038085028862429
10.3575	0.0038403038997780
10.3585	0.0038721049133131
10.3595	0.0039039059268482
10.3605	0.0039357069403833
10.3615	0.0039675079539183
10.3625	0.0039993089674534
10.3635	0.0040311099809885
10.3645	0.0040629109945236
10.3655	0.0040947120080587
10.3665	0.0041265130215938
10.3675	0.0041583140351289
10.3685	0.0041901150486640
10.3695	0.0042219160621991
10.3705	0.0042537170757342
10.3715	0.0042855180892693
10.3725	0.0043173191028043
10.3735	0.0043491201163394
10.3745	0.0043809211298745
10.3755	0.0044127221434096
10.3765	0.0044445231569447
10.3775	0.0044763241704798
10.3785	0.0045081251840149
10.3795	0.0045399261975500
10.3805	0.0045717272110851
10.3815	0.0046035282246202
10.3825	0.0046353292381552
10.3835	0.0046671302516903
10.3845	0.0046989312652254
10.3855	0.0047307322787605
10.3865	0.0047625332922956
10.3875	0.0047943343058307
10.3885	0.0048261353193658
10.3895	0.0048579363329009
10.3905	0.0048897373464360
10.3915	0.0049215383599711
10.3925	0.0049533393735061
10.3935	0.0049851403870412
10.3945	0.0050169414005763
10.3955	0.0050487424141114
10.3965	0.0050805434276465
10.3975	0.0051123444411816
10.3985	0.0051441454547167
10.3995	0.0051759464682518
10.4005	0.0052077474817869
10.4015	0.0052395484953220
10.4025	0.0052713495088570
10.4035	0.0053031505223921
10.4045	0.0053349515359272
10.4055	0.0053667525494623
10.4065	0.0053985535629974
10.4075	0.0054303545765325
10.4085	0.0054621555900676
10.4095	0.0054939566036027
10.4105	0.0055257576171378
10.4115	0.0055575586306729
10.4125	0.0055893596442080
10.4135	0.0056211606577430
10.4145	0.0056529616712781
10.4155	0.0056847626848132
10.4165	0.0057165636983483
10.4175	0.0057483647118834
10.4185	0.0057801657254185
10.4195	0.0058119667389536
10.4205	0.0058437677524887
10.4215	0.0058755687660238
10.4225	0.0059073697795589
10.4235	0.0059391707930939
10.4245	0.0059709718066290
10.4255	0.0060027728201641
10.4265	0.0060345738336992
10.4275	0.0060663748472343
10.4285	0.0060981758607694
10.4295	0.0061299768743045
10.4305	0.0061617778878396
10.4315	0.0061935789013747
10.4325	0.0062253799149098
10.4335	0.0062571809284448
10.4345	0.0062889819419799
10.4355	0.0063207829555150
10.4365	0.0063525839690501
10.4375	0.0063843849825852
10.4385	0.0064161859961203
10.4395	0.0064479870096554
10.4405	0.0064797880231905
10.4415	0.0065115890367256
10.4425	0.0065433900502607
10.4435	0.0065751910637957
10.4445	0.0066069920773308
10.4455	0.0066387930908659
10.4465	0.0066705941044010
10.4475	0.0067023951179361
10.4485	0.0067341961314712
10.4495	0.0067659971450063
10.4505	0.0067977981585414
10.4515	0.0068295991720765
10.4525	0.0068614001856116
10.4535	0.0068932011991467
10.4545	0.0069250022126817
10.4555	0.0069568032262168
10.4565	0.0069392663640327
10.4575	0.0069171439198344
10.4585	0.0068950214756361
10.4595	0.0068728990314378
10.4605	0.0068507765872395
10.4615	0.0068286541430411
10.4625	0.0068065316988428
10.4635	0.0067844092546445
10.4645	0.0067622868104462
10.4655	0.0067401643662478
10.4665	0.0067180419220495
10.4675	0.0066959194778512
10.4685	0.0066737970336529
10.4695	0.0066516745894545
10.4705	0.0066295521452562
10.4715	0.0066074297010579
10.4725	0.0065853072568596
10.4735	0.0065631848126612
10.4745	0.0065410623684629
10.4755	0.0065189399242646
10.4765	0.0064968174800663
10.4775	0.0064746950358680
10.4785	0.0064525725916696
10.4795	0.0064304501474713
10.4805	0.0064083277032730
10.4815	0.0063862052590747
10.4825	0.0063640828148763
10.4835	0.0063419603706780
10.4845	0.0063198379264797
10.4855	0.0062977154822814
10.4865	0.0062755930380830
10.4875	0.0062534705938847
10.4885	0.0062313481496864
10.4895	0.0062092257054881
10.4905	0.0061871032612897
10.4915	0.0061649808170914
10.4925	0.0061428583728931
10.4935	0.0061207359286948
10.4945	0.0060986134844964
10.4955	0.0060764910402981
10.4965	0.0060543685960998
10.4975	0.0060322461519015
10.4985	0.0060101237077032
10.4995	0.0059880012635048
10.5005	0.0059658788193065
10.5015	0.0059437563751082
10.5025	0.0059216339309099
10.5035	0.0058995114867115
10.5045	0.0058773890425132
10.5055	0.0058552665983149
10.5065	0.0058331441541166
10.5075	0.0058110217099182
10.5085	0.0057888992657199
10.5095	0.0057667768215216
10.5105	0.0057446543773233
10.5115	0.0057225319331249
10.5125	0.0057004094889266
10.5135	0.0056782870447283
10.5145	0.0056561646005300
10.5155	0.0056340421563316
10.5165	0.0056119197121333
10.5175	0.0055897972679350
10.5185	0.0055676748237367
10.5195	0.0055455523795384
10.5205	0.0055234299353400
10.5215	0.0055013074911417
10.5225	0.0054791850469434
10.5235	0.0054570626027451
10.5245	0.0054349401585467
10.5255	0.0054128177143484
10.5265	0.0053906952701501
10.5275	0.0053685728259518
10.5285	0.0053464503817534
10.5295	0.0053243279375551
10.5305	0.0053022054933568
10.5315	0.0052800830491585
10.5325	0.0052579606049601
10.5335	0.0052358381607618
10.5345	0.0052137157165635
10.5355	0.0051915932723652
10.5365	0.0051694708281668
10.5375	0.0051473483839685
10.5385	0.0051252259397702
10.5395	0.0051031034955719
10.5405	0.0050809810513736
10.5415	0.0050588586071752
10.5425	0.0050367361629769
10.5435	0.0050146137187786
10.5445	0.0049924912745803
10.5455	0.0049703688303819
10.5465	0.0049482463861836
10.5475	0.0049261239419853
10.5485	0.0049040014977870
10.5495	0.0048818790535886
10.5505	0.0048597566093903
10.5515	0.0048376341651920
10.5525	0.0048155117209937
10.5535	0.0047933892767953
10.5545	0.0047712668325970
10.5555	0.0047491443883987
10.5565	0.0047270219442004
10.5575	0.0047048995000021
10.5585	0.0046827770558037
10.5595	0.0046606546116054
10.5605	0.0046385321674071
10.5615	0.0046164097232088
10.5625	0.0045942872790104
10.5635	0.0045721648348121
10.5645	0.0045500423906138
10.5655	0.0045279199464155
10.5665	0.0045057975022171
10.5675	0.0044836750580188
10.5685	0.0044615526138205
10.5695	0.0044394301696222
10.5705	0.0044173077254238
10.5715	0.0043951852812255
10.5725	0.0043730628370272
10.5735	0.0043509403928289
10.5745	0.0043288179486305
10.5755	0.0043066955044322
10.5765	0.0042845730602339
10.5775	0.0042624506160356
10.5785	0.0042403281718373
10.5795	0.0042182057276389
10.5805	0.0041960832834406
10.5815	0.0041739608392423
10.5825	0.0041518383950440
10.5835	0.0041297159508456
10.5845	0.0041075935066473
10.5855	0.0040854710624490
10.5865	0.0040633486182507
10.5875	0.0040412261740523
10.5885	0.0040191037298540
10.5895	0.0039969812856557
10.5905	0.0039748588414574
10.5915	0.0039527363972590
10.5925	0.0039306139530607
10.5935	0.0039084915088624
10.5945	0.0038863690646641
10.5955	0.0038642466204657
10.5965	0.0038421241762674
10.5975	0.0038200017320691
10.5985	0.0037978792878708
10.5995	0.0037757568436725
10.6005	0.0037536343994741
10.6015	0.0037315119552758
10.6025	0.0037093895110775
10.6035	0.0036872670668792
10.6045	0.0036880640229252
10.6055	0.0036922119812124
10.6065	0.0036963599394996
10.6075	0.0037005078977867
10.6085	0.0037046558560739
10.6095	0.0037088038143611
10.6105	0.0037129517726483
10.6115	0.0037170997309355
10.6125	0.0037212476892227
10.6135	0.0037253956475099
10.6145	0.0037295436057970
10.6155	0.0037336915640842
10.6165	0.0037378395223714
10.6175	0.0037419874806586
10.6185	0.0037461354389458
10.6195	0.0037502833972330
10.6205	0.0037544313555202
10.6215	0.0037585793138073
10.6225	0.0037627272720945
10.6235	0.0037668752303817
10.6245	0.0037710231886689
10.6255	0.0037751711469561
10.6265	0.0037793191052433
10.6275	0.0037834670635305
10.6285	0.0037876150218176
10.6295	0.0037917629801048
10.6305	0.0037959109383920
10.6315	0.0038000588966792
10.6325	0.0038042068549664
10.6335	0.0038083548132536
10.6345	0.0038125027715408
10.6355	0.0038166507298279
10.6365	0.0038207986881151
10.6375	0.0038249466464023
10.6385	0.0038290946046895
10.6395	0.0038332425629767
10.6405	0.0038373905212639
10.6415	0.0038415384795511
10.6425	0.0038456864378382
10.6435	0.0038498343961254
10.6445	0.0038539823544126
10.6455	0.0038581303126998
10.6465	0.0038622782709870
10.6475	0.0038664262292742
10.6485	0.0038705741875613
10.6495	0.0038747221458485
10.6505	0.0038788701041357
10.6515	0.0038830180624229
10.6525	0.0038871660207101
10.6535	0.0038913139789973
10.6545	0.0038954619372845
10.6555	0.0038996098955716
10.6565	0.0039037578538588
10.6575	0.0039079058121460
10.6585	0.0039120537704332
10.6595	0.0039162017287204
10.6605	0.0039203496870076
10.6615	0.0039244976452948
10.6625	0.0039286456035819
10.6635	0.0039327935618691
10.6645	0.0039369415201563
10.6655	0.0039410894784435
10.6665	0.0039452374367307
10.6675	0.0039493853950179
10.6685	0.0039535333533051
10.6695	0.0039576813115922
10.6705	0.0039618292698794
10.6715	0.0039659772281666
10.6725	0.0039701251864538
10.6735	0.0039742731447410
10.6745	0.0039784211030282
10.6755	0.0039825690613154
10.6765	0.0039867170196025
10.6775	0.0039908649778897
10.6785	0.0039950129361769
10.6795	0.0039991608944641
10.6805	0.0040033088527513
10.6815	0.0040074568110385
10.6825	0.0040116047693257
10.6835	0.0040157527276128
10.6845	0.0040199006859000
10.6855	0.0040240486441872
10.6865	0.0040281966024744
10.6875	0.0040323445607616
10.6885	0.0040364925190488
10.6895	0.0040406404773360
10.6905	0.0040447884356231
10.6915	0.0040489363939103
10.6925	0.0040530843521975
10.6935	0.0040572323104847
10.6945	0.0040613802687719
10.6955	0.0040655282270591
10.6965	0.0040696761853462
10.6975	0.0040738241436334
10.6985	0.0040779721019206
10.6995	0.0040821200602078
10.7005	0.0040862680184950
10.7015	0.0040904159767822
10.7025	0.0040945639350694
10.7035	0.0040987118933565
10.7045	0.0041028598516437
10.7055	0.0041070078099309
10.7065	0.0041111557682181
10.7075	0.0041153037265053
10.7085	0.0041194516847925
10.7095	0.0041235996430797
10.7105	0.0041277476013668
10.7115	0.0041318955596540
10.7125	0.0041360435179412
10.7135	0.0041401914762284
10.7145	0.0041443394345156
10.7155	0.0041484873928028
10.7165	0.0041526353510900
10.7175	0.0041567833093771
10.7185	0.0041609312676643
10.7195	0.0041650792259515
10.7205	0.0041692271842387
10.7215	0.0041733751425259
10.7225	0.0041775231008131
10.7235	0.0041816710591003
10.7245	0.0041858190173874
10.7255	0.0041899669756746
10.7265	0.0041941149339618
10.7275	0.0041982628922490
10.7285	0.0042024108505362
10.7295	0.0042065588088234
10.7305	0.0042107067671106
10.7315	0.0042148547253977
10.7325	0.0042190026836849
10.7335	0.0042231506419721
10.7345	0.0042272986002593
10.7355	0.0042314465585465
10.7365	0.0042355945168337
10.7375	0.0042397424751209
10.7385	0.0042438904334080
10.7395	0.0042480383916952
10.7405	0.0042521863499824
10.7415	0.0042563343082696
10.7425	0.0042604822665568
10.7435	0.0042646302248440
10.7445	0.0042687781831311
10.7455	0.0042729261414183
10.7465	0.0042770740997055
10.7475	0.0042812220579927
10.7485	0.0042853700162799
10.7495	0.0042895179745671
10.7505	0.0042936659328543
10.7515	0.0042978138911414
10.7525	0.0042836019340625
10.7535	0.0042656274481514
10.7545	0.0042476529622402
10.7555	0.0042296784763291
10.7565	0.0042117039904180
10.7575	0.0041937295045068
10.7585	0.0041757550185957
10.7595	0.0041577805326845
10.7605	0.0041398060467734
10.7615	0.0041218315608623
10.7625	0.0041038570749511
10.7635	0.0040858825890400
10.7645	0.0040679081031289
10.7655	0.0040499336172177
10.7665	0.0040319591313066
10.7675	0.0040139846453954
10.7685	0.0039960101594843
10.7695	0.0039780356735732
10.7705	0.0039600611876620
10.7715	0.0039420867017509
10.7725	0.0039241122158397
10.7735	0.0039061377299286
10.7745	0.0038881632440175
10.7755	0.0038701887581063
10.7765	0.0038522142721952
10.7775	0.0038342397862841
10.7785	0.0038162653003729
10.7795	0.0037982908144618
10.7805	0.0037803163285506
10.7815	0.0037623418426395
10.7825	0.0037443673567284
10.7835	0.0037263928708172
10.7845	0.0037084183849061
10.7855	0.0036904438989950
10.7865	0.0036724694130838
10.7875	0.0036544949271727
10.7885	0.0036365204412615
10.7895	0.0036185459553504
10.7905	0.0036005714694393
10.7915	0.0035825969835281
10.7925	0.0035646224976170
10.7935	0.0035466480117058
10.7945	0.0035286735257947
10.7955	0.0035106990398836
10.7965	0.0034927245539724
10.7975	0.0034747500680613
10.7985	0.0034567755821502
10.7995	0.0034388010962390
10.8005	0.0034208266103279
10.8015	0.0034028521244167
10.8025	0.0033848776385056
10.8035	0.0033669031525945
10.8045	0.0033489286666833
10.8055	0.0033309541807722
10.8065	0.0033129796948611
10.8075	0.0032950052089499
10.8085	0.0032770307230388
10.8095	0.0032590562371276
10.8105	0.0032410817512165
10.8115	0.0032231072653054
10.8125	0.0032051327793942
10.8135	0.0031871582934831
10.8145	0.0031691838075719
10.8155	0.0031512093216608
10.8165	0.0031332348357497
10.8175	0.0031152603498385
10.8185	0.0030972858639274
10.8195	0.0030793113780163
10.8205	0.0030613368921051
10.8215	0.0030433624061940
10.8225	0.0030253879202828
10.8235	0.0030074134343717
10.8245	0.0029894389484606
10.8255	0.0029714644625494
10.8265	0.0029534899766383
10.8275	0.0029355154907272
10.8285	0.0029175410048160
10.8295	0.0028995665189049
10.8305	0.0028815920329937
10.8315	0.0028636175470826
10.8325	0.0028456430611715
10.8335	0.0028276685752603
10.8345	0.0028096940893492
10.8355	0.0027917196034380
10.8365	0.0027737451175269
10.8375	0.0027557706316158
10.8385	0.0027377961457046
10.8395	0.0027198216597935
10.8405	0.0027018471738824
10.8415	0.0026838726879712
10.8425	0.0026658982020601
10.8435	0.0026479237161489
10.8445	0.0026299492302378
10.8455	0.0026119747443267
10.8465	0.0025940002584155
10.8475	0.0025760257725044
10.8485	0.0025580512865933
10.8495	0.0025400768006821
10.8505	0.0025221023147710
10.8515	0.0025041278288598
10.8525	0.0024861533429487
10.8535	0.0024681788570376
10.8545	0.0024502043711264
10.8555	0.0024322298852153
10.8565	0.0024142553993041
10.8575	0.0023962809133930
10.8585	0.0023783064274819
10.8595	0.0023603319415707
10.8605	0.0023423574556596
10.8615	0.0023243829697485
10.8625	0.0023064084838373
10.8635	0.0022884339979262
10.8645	0.0022704595120150
10.8655	0.0022524850261039
10.8665	0.0022345105401928
10.8675	0.0022165360542816
10.8685	0.0021985615683705
10.8695	0.0021805870824594
10.8705	0.0021626125965482
10.8715	0.0021446381106371
10.8725	0.0021266636247259
10.8735	0.0021086891388148
10.8745	0.0020907146529037
10.8755	0.0020727401669925
10.8765	0.0020547656810814
10.8775	0.0020367911951702
10.8785	0.0020188167092591
10.8795	0.0020008422233480
10.8805	0.0019828677374368
10.8815	0.0019648932515257
10.8825	0.0019469187656146
10.8835	0.0019289442797034
10.8845	0.0019109697937923
10.8855	0.0018929953078811
10.8865	0.0018750208219700
10.8875	0.0018570463360589
10.8885	0.0018390718501477
10.8895	0.0018210973642366
10.8905	0.0018031228783255
10.8915	0.0017851483924143
10.8925	0.0017671739065032
10.8935	0.0017491994205920
10.8945	0.0017312249346809
10.8955	0.0017132504487698
10.8965	0.0016952759628586
10.8975	0.0016773014769475
10.8985	0.0016593269910363
10.8995	0.0016413525051252
10.9005	0.0016680149323066
10.9015	0.0017067292096537
10.9025	0.0017454434870007
10.9035	0.0017841577643478
10.9045	0.0018228720416949
10.9055	0.0018615863190419
10.9065	0.0019003005963890
10.9075	0.0019390148737361
10.9085	0.0019777291510831
10.9095	0.0020164434284302
10.9105	0.0020551577057773
10.9115	0.0020938719831243
10.9125	0.0021325862604714
10.9135	0.0021713005378185
10.9145	0.0022100148151655
10.9155	0.0022487290925126
10.9165	0.0022874433698597
10.9175	0.0023261576472067
10.9185	0.0023648719245538
10.9195	0.0024035862019009
10.9205	0.0024423004792479
10.9215	0.0024810147565950
10.9225	0.0025197290339421
10.9235	0.0025584433112891
10.9245	0.0025971575886362
10.9255	0.0026358718659833
10.9265	0.0026745861433304
10.9275	0.0027133004206774
10.9285	0.0027520146980245
10.9295	0.0027907289753716
10.9305	0.0028294432527186
10.9315	0.0028681575300657
10.9325	0.0029068718074128
10.9335	0.0029455860847598
10.9345	0.0029843003621069
10.9355	0.0030230146394540
10.9365	0.0030617289168010
10.9375	0.0031004431941481
10.9385	0.0031391574714952
10.9395	0.0031778717488422
10.9405	0.0032165860261893
10.9415	0.0032553003035364
10.9425	0.0032940145808834
10.9435	0.0033327288582305
10.9445	0.0033714431355776
10.9455	0.0034101574129246
10.9465	0.0034488716902717
10.9475	0.0034875859676188
10.9485	0.0035263002449658
10.9495	0.0035650145223129
10.9505	0.0036037287996600
10.9515	0.0036424430770070
10.9525	0.0036811573543541
10.9535	0.0037198716317012
10.9545	0.0037585859090482
10.9555	0.0037973001863953
10.9565	0.0038360144637424
10.9575	0.0038747287410894
10.9585	0.0039134430184365
10.9595	0.0039521572957836
10.9605	0.0039908715731307
10.9615	0.0040295858504777
10.9625	0.0040683001278248
10.9635	0.0041070144051719
10.9645	0.0041457286825189
10.9655	0.0041844429598660
10.9665	0.0042231572372131
10.9675	0.0042618715145601
10.9685	0.0043005857919072
10.9695	0.0043393000692543
10.9705	0.0043780143466013
10.9715	0.0044167286239484
10.9725	0.0044554429012955
10.9735	0.0044941571786425
10.9745	0.0045328714559896
10.9755	0.0045715857333367
10.9765	0.0046103000106837
10.9775	0.0046490142880308
10.9785	0.0046877285653779
10.9795	0.0047264428427249
10.9805	0.0047651571200720
10.9815	0.0048038713974191
10.9825	0.0048425856747661
10.9835	0.0048812999521132
10.9845	0.0049200142294603
10.9855	0.0049587285068073
10.9865	0.0049974427841544
10.9875	0.0050361570615015
10.9885	0.0050748713388485
10.9895	0.0051135856161956
10.9905	0.0051522998935427
10.9915	0.0051910141708897
10.9925	0.0052297284482368
10.9935	0.0052684427255839
10.9945	0.0053071570029310
10.9955	0.0053458712802780
10.9965	0.0053845855576251
10.9975	0.0054232998349722
10.9985	0.0054620141123192
10.9995	0.0055007283896663
11.0005	0.0055394426670134
11.0015	0.0055781569443604
11.0025	0.0056168712217075
11.0035	0.0056555854990546
11.0045	0.0056942997764016
11.0055	0.0057330140537487
11.0065	0.0057717283310958
11.0075	0.0058104426084428
11.0085	0.0058491568857899
11.0095	0.0058878711631370
11.0105	0.0059265854404840
11.0115	0.0059652997178311
11.0125	0.0060040139951782
11.0135	0.0060427282725252
11.0145	0.0060814425498723
11.0155	0.0061201568272194
11.0165	0.0061588711045664
11.0175	0.0061975853819135
11.0185	0.0062362996592606
11.0195	0.0062750139366076
11.0205	0.0063137282139547
11.0215	0.0063524424913018
11.0225	0.0063911567686488
11.0235	0.0064298710459959
11.0245	0.0064685853233430
11.0255	0.0065072996006901
11.0265	0.0065460138780371
11.0275	0.0065847281553842
11.0285	0.0066234424327313
11.0295	0.0066621567100783
11.0305	0.0067008709874254
11.0315	0.0067395852647725
11.0325	0.0067782995421195
11.0335	0.0068170138194666
11.0345	0.0068557280968137
11.0355	0.0068944423741607
11.0365	0.0069331566515078
11.0375	0.0069718709288549
11.0385	0.0070105852062019
11.0395	0.0070492994835490
11.0405	0.0070880137608961
11.0415	0.0071267280382431
11.0425	0.0071654423155902
11.0435	0.0072041565929373
11.0445	0.0072428708702843
11.0455	0.0072815851476314
11.0465	0.0073202994249785
11.0475	0.0073590137023255
11.0485	0.0073379928699788
11.0495	0.0072965132871069
11.0505	0.0072550337042350
11.0515	0.0072135541213632
11.0525	0.0071720745384913
11.0535	0.0071305949556195
11.0545	0.0070891153727476
11.0555	0.0070476357898758
11.0565	0.0070061562070039
11.0575	0.0069646766241320
11.0585	0.0069231970412602
11.0595	0.0068817174583883
11.0605	0.0068402378755165
11.0615	0.0067987582926446
11.0625	0.0067572787097728
11.0635	0.0067157991269009
11.0645	0.0066743195440290
11.0655	0.0066328399611572
11.0665	0.0065913603782853
11.0675	0.0065498807954135
11.0685	0.0065084012125416
11.0695	0.0064669216296698
11.0705	0.0064254420467979
11.0715	0.0063839624639260
11.0725	0.0063424828810542
11.0735	0.0063010032981823
11.0745	0.0062595237153105
11.0755	0.0062180441324386
11.0765	0.0061765645495667
11.0775	0.0061350849666949
11.0785	0.0060936053838230
11.0795	0.0060521258009512
11.0805	0.0060106462180793
11.0815	0.0059691666352075
11.0825	0.0059276870523356
11.0835	0.0058862074694637
11.0845	0.0058447278865919
11.0855	0.0058032483037200
11.0865	0.0057617687208482
11.0875	0.0057202891379763
11.0885	0.0056788095551045
11.0895	0.0056373299722326
11.0905	0.0055958503893607
11.0915	0.0055543708064889
11.0925	0.0055128912236170
11.0935	0.0054714116407452
11.0945	0.0054299320578733
11.0955	0.0053884524750015
11.0965	0.0053469728921296
11.0975	0.0053054933092577
11.0985	0.0052640137263859
11.0995	0.0052225341435140
11.1005	0.0051810545606422
11.1015	0.0051395749777703
11.1025	0.0050980953948984
11.1035	0.0050566158120266
11.1045	0.0050151362291547
11.1055	0.0049736566462829
11.1065	0.0049321770634110
11.1075	0.0048906974805392
11.1085	0.0048492178976673
11.1095	0.0048077383147954
11.1105	0.0047662587319236
11.1115	0.0047247791490517
11.1125	0.0046832995661799
11.1135	0.0046418199833080
11.1145	0.0046003404004362
11.1155	0.0045588608175643
11.1165	0.0045173812346924
11.1175	0.0044759016518206
11.1185	0.0044344220689487
11.1195	0.0043929424860769
11.1205	0.0043514629032050
11.1215	0.0043099833203332
11.1225	0.0042685037374613
11.1235	0.0042270241545894
11.1245	0.0041855445717176
11.1255	0.0041440649888457
11.1265	0.0041025854059739
11.1275	0.0040611058231020
11.1285	0.0040196262402301
11.1295	0.0039781466573583
11.1305	0.0039366670744864
11.1315	0.0038951874916146
11.1325	0.0038537079087427
11.1335	0.0038122283258709
11.1345	0.0037707487429990
11.1355	0.0037292691601271
11.1365	0.0036877895772553
11.1375	0.0036463099943834
11.1385	0.0036048304115116
11.1395	0.0035633508286397
11.1405	0.0035218712457679
11.1415	0.0034803916628960
11.1425	0.0034389120800241
11.1435	0.0033974324971523
11.1445	0.0033559529142804
11.1455	0.0033144733314086
11.1465	0.0032729937485367
11.1475	0.0032315141656649
11.1485	0.0031900345827930
11.1495	0.0031485549999211
11.1505	0.0031070754170493
11.1515	0.0030655958341774
11.1525	0.0030241162513056
11.1535	0.0029826366684337
11.1545	0.0029411570855618
11.1555	0.0028996775026900
11.1565	0.0028581979198181
11.1575	0.0028167183369463
11.1585	0.0027752387540744
11.1595	0.0027337591712026
11.1605	0.0026922795883307
11.1615	0.0026508000054588
11.1625	0.0026093204225870
11.1635	0.0025678408397151
11.1645	0.0025263612568433
11.1655	0.0024848816739714
11.1665	0.0024434020910996
11.1675	0.0024019225082277
11.1685	0.0023604429253558
11.1695	0.0023189633424840
11.1705	0.0022774837596121
11.1715	0.0022360041767403
11.1725	0.0021945245938684
11.1735	0.0021530450109966
11.1745	0.0021115654281247
11.1755	0.0020700858452528
11.1765	0.0020286062623810
11.1775	0.0019871266795091
11.1785	0.0019456470966373
11.1795	0.0019041675137654
11.1805	0.0018626879308935
11.1815	0.0018212083480217
11.1825	0.0017797287651498
11.1835	0.0017382491822780
11.1845	0.0016967695994061
11.1855	0.0016552900165343
11.1865	0.0016138104336624
11.1875	0.0015723308507905
11.1885	0.0015308512679187
11.1895	0.0014893716850468
11.1905	0.0014478921021750
11.1915	0.0014064125193031
11.1925	0.0013649329364313
11.1935	0.0013234533535594
11.1945	0.0012819737706875
11.1955	0.0012404941878157
11.1965	0.0012640800584258
11.1975	0.0013152382106344
11.1985	0.0013663963628430
11.1995	0.0014175545150516
11.2005	0.0014687126672603
11.2015	0.0015198708194689
11.2025	0.0015710289716775
11.2035	0.0016221871238861
11.2045	0.0016733452760948
11.2055	0.0017245034283034
11.2065	0.0017756615805120
11.2075	0.0018268197327206
11.2085	0.0018779778849293
11.2095	0.0019291360371379
11.2105	0.0019802941893465
11.2115	0.0020314523415551
11.2125	0.0020826104937638
11.2135	0.0021337686459724
11.2145	0.0021849267981810
11.2155	0.0022360849503896
11.2165	0.0022872431025983
11.2175	0.0023384012548069
11.2185	0.0023895594070155
11.2195	0.0024407175592241
11.2205	0.0024918757114328
11.2215	0.0025430338636414
11.2225	0.0025941920158500
11.2235	0.0026453501680586
11.2245	0.0026965083202673
11.2255	0.0027476664724759
11.2265	0.0027988246246845
11.2275	0.0028499827768931
11.2285	0.0029011409291018
11.2295	0.0029522990813104
11.2305	0.0030034572335190
11.2315	0.0030546153857276
11.2325	0.0031057735379363
11.2335	0.0031569316901449
11.2345	0.0032080898423535
11.2355	0.0032592479945621
11.2365	0.0033104061467708
11.2375	0.0033615642989794
11.2385	0.0034127224511880
11.2395	0.0034638806033966
11.2405	0.0035150387556053
11.2415	0.0035661969078139
11.2425	0.0036173550600225
11.2435	0.0036685132122311
11.2445	0.0037196713644398
11.2455	0.0037708295166484
11.2465	0.0038219876688570
11.2475	0.0038731458210656
11.2485	0.0039243039732743
11.2495	0.0039754621254829
11.2505	0.0040266202776915
11.2515	0.0040777784299001
11.2525	0.0041289365821088
11.2535	0.0041800947343174
11.2545	0.0042312528865260
11.2555	0.0042824110387346
11.2565	0.0043335691909433
11.2575	0.0043847273431519
11.2585	0.0044358854953605
11.2595	0.0044870436475691
11.2605	0.0045382017997778
11.2615	0.0045893599519864
11.2625	0.0046405181041950
11.2635	0.0046916762564036
11.2645	0.0047428344086123
11.2655	0.0047939925608209
11.2665	0.0048451507130295
11.2675	0.0048963088652381
11.2685	0.0049474670174468
11.2695	0.0049986251696554
11.2705	0.0050497833218640
11.2715	0.0051009414740726
11.2725	0.0051520996262813
11.2735	0.0052032577784899
11.2745	0.0052544159306985
11.2755	0.0053055740829072
11.2765	0.0053567322351158
11.2775	0.0054078903873244
11.2785	0.0054590485395330
11.2795	0.0055102066917417
11.2805	0.0055613648439503
11.2815	0.0056125229961589
11.2825	0.0056636811483675
11.2835	0.0057148393005762
11.2845	0.0057659974527848
11.2855	0.0058171556049934
11.2865	0.0058683137572020
11.2875	0.0059194719094107
11.2885	0.0059706300616193
11.2895	0.0060217882138279
11.2905	0.0060729463660365
11.2915	0.0061241045182451
11.2925	0.0061752626704538
11.2935	0.0062264208226624
11.2945	0.0062775789748710
11.2955	0.0063287371270796
11.2965	0.0063798952792883
11.2975	0.0064310534314969
11.2985	0.0064822115837055
11.2995	0.0065333697359142
11.3005	0.0065845278881228
11.3015	0.0066356860403314
11.3025	0.0066868441925400
11.3035	0.0067380023447487
11.3045	0.0067891604969573
11.3055	0.0068403186491659
11.3065	0.0068914768013745
11.3075	0.0069426349535832
11.3085	0.0069937931057918
11.3095	0.0070449512580004
11.3105	0.0070961094102090
11.3115	0.0071472675624177
11.3125	0.0071984257146263
11.3135	0.0072495838668349
11.3145	0.0073007420190435
11.3155	0.0073519001712522
11.3165	0.0074030583234608
11.3175	0.0074542164756694
11.3185	0.0075053746278780
11.3195	0.0075565327800867
11.3205	0.0076076909322953
11.3215	0.0076588490845039
11.3225	0.0077100072367125
11.3235	0.0077611653889212
11.3245	0.0078123235411298
11.3255	0.0078634816933384
11.3265	0.0079146398455470
11.3275	0.0079657979977557
11.3285	0.0080169561499643
11.3295	0.0080681143021729
11.3305	0.0081192724543815
11.3315	0.0081704306065902
11.3325	0.0082215887587988
11.3335	0.0082727469110074
11.3345	0.0083239050632160
11.3355	0.0083750632154247
11.3365	0.0084262213676333
11.3375	0.0084773795198419
11.3385	0.0085285376720505
11.3395	0.0085796958242592
11.3405	0.0086308539764678
11.3415	0.0086820121286764
11.3425	0.0087331702808850
11.3435	0.0087843284330937
11.3445	0.0087807463858001
11.3455	0.0087489453722650
11.3465	0.0087171443587299
11.3475	0.0086853433451948
11.3485	0.0086535423316597
11.3495	0.0086217413181246
11.3505	0.0085899403045895
11.3515	0.0085581392910544
11.3525	0.0085263382775193
11.3535	0.0084945372639842
11.3545	0.0084627362504491
11.3555	0.0084309352369140
11.3565	0.0083991342233790
11.3575	0.0083673332098439
11.3585	0.0083355321963088
11.3595	0.0083037311827737
11.3605	0.0082719301692386
11.3615	0.0082401291557035
11.3625	0.0082083281421684
11.3635	0.0081765271286333
11.3645	0.0081447261150982
11.3655	0.0081129251015631
11.3665	0.0080811240880280
11.3675	0.0080493230744930
11.3685	0.0080175220609579
11.3695	0.0079857210474228
11.3705	0.0079539200338877
11.3715	0.0079221190203526
11.3725	0.0078903180068175
11.3735	0.0078585169932824
11.3745	0.0078267159797473
11.3755	0.0077949149662122
11.3765	0.0077631139526771
11.3775	0.0077313129391420
11.3785	0.0076995119256070
11.3795	0.0076677109120719
11.3805	0.0076359098985368
11.3815	0.0076041088850017
11.3825	0.0075723078714666
11.3835	0.0075405068579315
11.3845	0.0075087058443964
11.3855	0.0074769048308613
11.3865	0.0074451038173262
11.3875	0.0074133028037911
11.3885	0.0073815017902560
11.3895	0.0073497007767210
11.3905	0.0073178997631859
11.3915	0.0072860987496508
11.3925	0.0072542977361157
11.3935	0.0072224967225806
11.3945	0.0071906957090455
11.3955	0.0071588946955104
11.3965	0.0071270936819753
11.3975	0.0070952926684402
11.3985	0.0070634916549051
11.3995	0.0070316906413700
11.4005	0.0069998896278349
11.4015	0.0069680886142999
11.4025	0.0069362876007648
11.4035	0.0069044865872297
11.4045	0.0068726855736946
11.4055	0.0068408845601595
11.4065	0.0068090835466244
11.4075	0.0067772825330893
11.4085	0.0067454815195542
11.4095	0.0067136805060191
11.4105	0.0066818794924840
11.4115	0.0066500784789489
11.4125	0.0066182774654139
11.4135	0.0065864764518788
11.4145	0.0065546754383437
11.4155	0.0065228744248086
11.4165	0.0064910734112735
11.4175	0.0064592723977384
11.4185	0.0064274713842033
11.4195	0.0063956703706682
11.4205	0.0063638693571331
11.4215	0.0063320683435980
11.4225	0.0063002673300629
11.4235	0.0062684663165279
11.4245	0.0062366653029928
11.4255	0.0062048642894577
11.4265	0.0061730632759226
11.4275	0.0061412622623875
11.4285	0.0061094612488524
11.4295	0.0060776602353173
11.4305	0.0060458592217822
11.4315	0.0060140582082471
11.4325	0.0059822571947120
11.4335	0.0059504561811769
11.4345	0.0059186551676419
11.4355	0.0058868541541068
11.4365	0.0058550531405717
11.4375	0.0058232521270366
11.4385	0.0057914511135015
11.4395	0.0057596500999664
11.4405	0.0057278490864313
11.4415	0.0056960480728962
11.4425	0.0056642470593611
11.4435	0.0056324460458260
11.4445	0.0056006450322909
11.4455	0.0055688440187558
11.4465	0.0055370430052208
11.4475	0.0055052419916857
11.4485	0.0054734409781506
11.4495	0.0054416399646155
11.4505	0.0054098389510804
11.4515	0.0053780379375453
11.4525	0.0053462369240102
11.4535	0.0053144359104751
11.4545	0.0052826348969400
11.4555	0.0052508338834049
11.4565	0.0052190328698698
11.4575	0.0051872318563348
11.4585	0.0051554308427997
11.4595	0.0051236298292646
11.4605	0.0050918288157295
11.4615	0.0050600278021944
11.4625	0.0050282267886593
11.4635	0.0049964257751242
11.4645	0.0049646247615891
11.4655	0.0049328237480540
11.4665	0.0049010227345189
11.4675	0.0048692217209838
11.4685	0.0048374207074488
11.4695	0.0048056196939137
11.4705	0.0047738186803786
11.4715	0.0047420176668435
11.4725	0.0047102166533084
11.4735	0.0046784156397733
11.4745	0.0046466146262382
11.4755	0.0046148136127031
11.4765	0.0045830125991680
11.4775	0.0045512115856329
11.4785	0.0045194105720978
11.4795	0.0044876095585627
11.4805	0.0044558085450277
11.4815	0.0044240075314926
11.4825	0.0043922065179575
11.4835	0.0043604055044224
11.4845	0.0043286044908873
11.4855	0.0042968034773522
11.4865	0.0042650024638171
11.4875	0.0042332014502820
11.4885	0.0042014004367469
11.4895	0.0041695994232118
11.4905	0.0041377984096767
11.4915	0.0041059973961417
11.4925	0.0041049240798397
11.4935	0.0041228985657509
11.4945	0.0041408730516620
11.4955	0.0041588475375732
11.4965	0.0041768220234843
11.4975	0.0041947965093954
11.4985	0.0042127709953066
11.4995	0.0042307454812177
11.5005	0.0042487199671289
11.5015	0.0042666944530400
11.5025	0.0042846689389511
11.5035	0.0043026434248623
11.5045	0.0043206179107734
11.5055	0.0043385923966845
11.5065	0.0043565668825957
11.5075	0.0043745413685068
11.5085	0.0043925158544180
11.5095	0.0044104903403291
11.5105	0.0044284648262402
11.5115	0.0044464393121514
11.5125	0.0044644137980625
11.5135	0.0044823882839737
11.5145	0.0045003627698848
11.5155	0.0045183372557959
11.5165	0.0045363117417071
11.5175	0.0045542862276182
11.5185	0.0045722607135294
11.5195	0.0045902351994405
11.5205	0.0046082096853516
11.5215	0.0046261841712628
11.5225	0.0046441586571739
11.5235	0.0046621331430850
11.5245	0.0046801076289962
11.5255	0.0046980821149073
11.5265	0.0047160566008185
11.5275	0.0047340310867296
11.5285	0.0047520055726407
11.5295	0.0047699800585519
11.5305	0.0047879545444630
11.5315	0.0048059290303742
11.5325	0.0048239035162853
11.5335	0.0048418780021964
11.5345	0.0048598524881076
11.5355	0.0048778269740187
11.5365	0.0048958014599299
11.5375	0.0049137759458410
11.5385	0.0049317504317521
11.5395	0.0049497249176633
11.5405	0.0049676994035744
11.5415	0.0049856738894855
11.5425	0.0050036483753967
11.5435	0.0050216228613078
11.5445	0.0050395973472190
11.5455	0.0050575718331301
11.5465	0.0050755463190412
11.5475	0.0050935208049524
11.5485	0.0051114952908635
11.5495	0.0051294697767747
11.5505	0.0051474442626858
11.5515	0.0051654187485969
11.5525	0.0051833932345081
11.5535	0.0052013677204192
11.5545	0.0052193422063304
11.5555	0.0052373166922415
11.5565	0.0052552911781526
11.5575	0.0052732656640638
11.5585	0.0052912401499749
11.5595	0.0053092146358860
11.5605	0.0053271891217972
11.5615	0.0053451636077083
11.5625	0.0053631380936195
11.5635	0.0053811125795306
11.5645	0.0053990870654417
11.5655	0.0054170615513529
11.5665	0.0054350360372640
11.5675	0.0054530105231752
11.5685	0.0054709850090863
11.5695	0.0054889594949974
11.5705	0.0055069339809086
11.5715	0.0055249084668197
11.5725	0.0055428829527308
11.5735	0.0055608574386420
11.5745	0.0055788319245531
11.5755	0.0055968064104643
11.5765	0.0056147808963754
11.5775	0.0056327553822865
11.5785	0.0056507298681977
11.5795	0.0056687043541088
11.5805	0.0056866788400200
11.5815	0.0057046533259311
11.5825	0.0057226278118422
11.5835	0.0057406022977534
11.5845	0.0057585767836645
11.5855	0.0057765512695757
11.5865	0.0057945257554868
11.5875	0.0058125002413979
11.5885	0.0058304747273091
11.5895	0.0058484492132202
11.5905	0.0058664236991313
11.5915	0.0058843981850425
11.5925	0.0059023726709536
11.5935	0.0059203471568648
11.5945	0.0059383216427759
11.5955	0.0059562961286870
11.5965	0.0059742706145982
11.5975	0.0059922451005093
11.5985	0.0060102195864205
11.5995	0.0060281940723316
11.6005	0.0060461685582427
11.6015	0.0060641430441539
11.6025	0.0060821175300650
11.6035	0.0061000920159762
11.6045	0.0061180665018873
11.6055	0.0061360409877984
11.6065	0.0061540154737096
11.6075	0.0061719899596207
11.6085	0.0061899644455318
11.6095	0.0062079389314430
11.6105	0.0062259134173541
11.6115	0.0062438879032653
11.6125	0.0062618623891764
11.6135	0.0062798368750875
11.6145	0.0062978113609987
11.6155	0.0063157858469098
11.6165	0.0063337603328210
11.6175	0.0063517348187321
11.6185	0.0063697093046432
11.6195	0.0063876837905544
11.6205	0.0064056582764655
11.6215	0.0064236327623767
11.6225	0.0064416072482878
11.6235	0.0064595817341989
11.6245	0.0064775562201101
11.6255	0.0064955307060212
11.6265	0.0065135051919323
11.6275	0.0065314796778435
11.6285	0.0065494541637546
11.6295	0.0065674286496658
11.6305	0.0065854031355769
11.6315	0.0066033776214880
11.6325	0.0066213521073992
11.6335	0.0066393265933103
11.6345	0.0066573010792215
11.6355	0.0066752755651326
11.6365	0.0066932500510437
11.6375	0.0067112245369549
11.6385	0.0067291990228660
11.6395	0.0067471735087772
11.6405	0.0067468685691439
11.6415	0.0067330420415200
11.6425	0.0067192155138960
11.6435	0.0067053889862721
11.6445	0.0066915624586481
11.6455	0.0066777359310241
11.6465	0.0066639094034002
11.6475	0.0066500828757762
11.6485	0.0066362563481523
11.6495	0.0066224298205283
11.6505	0.0066086032929044
11.6515	0.0065947767652804
11.6525	0.0065809502376565
11.6535	0.0065671237100325
11.6545	0.0065532971824086
11.6555	0.0065394706547846
11.6565	0.0065256441271607
11.6575	0.0065118175995367
11.6585	0.0064979910719128
11.6595	0.0064841645442888
11.6605	0.0064703380166649
11.6615	0.0064565114890409
11.6625	0.0064426849614169
11.6635	0.0064288584337930
11.6645	0.0064150319061690
11.6655	0.0064012053785451
11.6665	0.0063873788509211
11.6675	0.0063735523232972
11.6685	0.0063597257956732
11.6695	0.0063458992680493
11.6705	0.0063320727404253
11.6715	0.0063182462128014
11.6725	0.0063044196851774
11.6735	0.0062905931575535
11.6745	0.0062767666299295
11.6755	0.0062629401023056
11.6765	0.0062491135746816
11.6775	0.0062352870470577
11.6785	0.0062214605194337
11.6795	0.0062076339918098
11.6805	0.0061938074641858
11.6815	0.0061799809365618
11.6825	0.0061661544089379
11.6835	0.0061523278813139
11.6845	0.0061385013536900
11.6855	0.0061246748260660
11.6865	0.0061108482984421
11.6875	0.0060970217708181
11.6885	0.0060831952431942
11.6895	0.0060693687155702
11.6905	0.0060555421879463
11.6915	0.0060417156603223
11.6925	0.0060278891326984
11.6935	0.0060140626050744
11.6945	0.0060002360774505
11.6955	0.0059864095498265
11.6965	0.0059725830222026
11.6975	0.0059587564945786
11.6985	0.0059449299669546
11.6995	0.0059311034393307
11.7005	0.0059172769117067
11.7015	0.0059034503840828
11.7025	0.0058896238564588
11.7035	0.0058757973288349
11.7045	0.0058619708012109
11.7055	0.0058481442735870
11.7065	0.0058343177459630
11.7075	0.0058204912183391
11.7085	0.0058066646907151
11.7095	0.0057928381630912
11.7105	0.0057790116354672
11.7115	0.0057651851078433
11.7125	0.0057513585802193
11.7135	0.0057375320525954
11.7145	0.0057237055249714
11.7155	0.0057098789973474
11.7165	0.0056960524697235
11.7175	0.0056822259420995
11.7185	0.0056683994144756
11.7195	0.0056545728868516
11.7205	0.0056407463592277
11.7215	0.0056269198316037
11.7225	0.0056130933039798
11.7235	0.0055992667763558
11.7245	0.0055854402487319
11.7255	0.0055716137211079
11.7265	0.0055577871934840
11.7275	0.0055439606658600
11.7285	0.0055301341382361
11.7295	0.0055163076106121
11.7305	0.0055024810829882
11.7315	0.0054886545553642
11.7325	0.0054748280277402
11.7335	0.0054610015001163
11.7345	0.0054471749724923
11.7355	0.0054333484448684
11.7365	0.0054195219172444
11.7375	0.0054056953896205
11.7385	0.0053918688619965
11.7395	0.0053780423343726
11.7405	0.0053642158067486
11.7415	0.0053503892791247
11.7425	0.0053365627515007
11.7435	0.0053227362238768
11.7445	0.0053089096962528
11.7455	0.0052950831686289
11.7465	0.0052812566410049
11.7475	0.0052674301133810
11.7485	0.0052536035857570
11.7495	0.0052397770581330
11.7505	0.0052259505305091
11.7515	0.0052121240028851
11.7525	0.0051982974752612
11.7535	0.0051844709476372
11.7545	0.0051706444200133
11.7555	0.0051568178923893
11.7565	0.0051429913647654
11.7575	0.0051291648371414
11.7585	0.0051153383095175
11.7595	0.0051015117818935
11.7605	0.0050876852542696
11.7615	0.0050738587266456
11.7625	0.0050600321990217
11.7635	0.0050462056713977
11.7645	0.0050323791437738
11.7655	0.0050185526161498
11.7665	0.0050047260885258
11.7675	0.0049908995609019
11.7685	0.0049770730332779
11.7695	0.0049632465056540
11.7705	0.0049494199780300
11.7715	0.0049355934504061
11.7725	0.0049217669227821
11.7735	0.0049079403951582
11.7745	0.0048941138675342
11.7755	0.0048802873399103
11.7765	0.0048664608122863
11.7775	0.0048526342846624
11.7785	0.0048388077570384
11.7795	0.0048249812294145
11.7805	0.0048111547017905
11.7815	0.0047973281741666
11.7825	0.0047835016465426
11.7835	0.0047696751189186
11.7845	0.0047558485912947
11.7855	0.0047420220636707
11.7865	0.0047281955360468
11.7875	0.0047143690084228
11.7885	0.0047292452374539
11.7895	0.0047693421675634
11.7905	0.0048094390976728
11.7915	0.0048495360277823
11.7925	0.0048896329578918
11.7935	0.0049297298880012
11.7945	0.0049698268181107
11.7955	0.0050099237482202
11.7965	0.0050500206783296
11.7975	0.0050901176084391
11.7985	0.0051302145385485
11.7995	0.0051703114686580
11.8005	0.0052104083987675
11.8015	0.0052505053288769
11.8025	0.0052906022589864
11.8035	0.0053306991890958
11.8045	0.0053707961192053
11.8055	0.0054108930493148
11.8065	0.0054509899794242
11.8075	0.0054910869095337
11.8085	0.0055311838396432
11.8095	0.0055712807697526
11.8105	0.0056113776998621
11.8115	0.0056514746299715
11.8125	0.0056915715600810
11.8135	0.0057316684901905
11.8145	0.0057717654202999
11.8155	0.0058118623504094
11.8165	0.0058519592805188
11.8175	0.0058920562106283
11.8185	0.0059321531407378
11.8195	0.0059722500708472
11.8205	0.0060123470009567
11.8215	0.0060524439310662
11.8225	0.0060925408611756
11.8235	0.0061326377912851
11.8245	0.0061727347213945
11.8255	0.0062128316515040
11.8265	0.0062529285816135
11.8275	0.0062930255117229
11.8285	0.0063331224418324
11.8295	0.0063732193719419
11.8305	0.0064133163020513
11.8315	0.0064534132321608
11.8325	0.0064935101622702
11.8335	0.0065336070923797
11.8345	0.0065737040224892
11.8355	0.0066138009525986
11.8365	0.0066538978827081
11.8375	0.0066939948128175
11.8385	0.0067340917429270
11.8395	0.0067741886730365
11.8405	0.0068142856031459
11.8415	0.0068543825332554
11.8425	0.0068944794633649
11.8435	0.0069345763934743
11.8445	0.0069746733235838
11.8455	0.0070147702536932
11.8465	0.0070548671838027
11.8475	0.0070949641139122
11.8485	0.0071350610440216
11.8495	0.0071751579741311
11.8505	0.0072152549042406
11.8515	0.0072553518343500
11.8525	0.0072954487644595
11.8535	0.0073355456945689
11.8545	0.0073756426246784
11.8555	0.0074157395547879
11.8565	0.0074558364848973
11.8575	0.0074959334150068
11.8585	0.0075360303451162
11.8595	0.0075761272752257
11.8605	0.0076162242053352
11.8615	0.0076563211354446
11.8625	0.0076964180655541
11.8635	0.0077365149956636
11.8645	0.0077766119257730
11.8655	0.0078167088558825
11.8665	0.0078568057859919
11.8675	0.0078969027161014
11.8685	0.0079369996462109
11.8695	0.0079770965763203
11.8705	0.0080171935064298
11.8715	0.0080572904365393
11.8725	0.0080973873666487
11.8735	0.0081374842967582
11.8745	0.0081775812268676
11.8755	0.0082176781569771
11.8765	0.0082577750870866
11.8775	0.0082978720171960
11.8785	0.0083379689473055
11.8795	0.0083780658774149
11.8805	0.0084181628075244
11.8815	0.0084582597376339
11.8825	0.0084983566677433
11.8835	0.0085384535978528
11.8845	0.0085785505279623
11.8855	0.0086186474580717
11.8865	0.0086587443881812
11.8875	0.0086988413182906
11.8885	0.0087389382484001
11.8895	0.0087790351785096
11.8905	0.0088191321086190
11.8915	0.0088592290387285
11.8925	0.0088993259688380
11.8935	0.0089394228989474
11.8945	0.0089795198290569
11.8955	0.0090196167591663
11.8965	0.0090597136892758
11.8975	0.0090998106193853
11.8985	0.0091399075494947
11.8995	0.0091800044796042
11.9005	0.0092201014097136
11.9015	0.0092601983398231
11.9025	0.0093002952699326
11.9035	0.0093403922000420
11.9045	0.0093804891301515
11.9055	0.0094205860602610
11.9065	0.0094606829903704
11.9075	0.0095007799204799
11.9085	0.0095408768505893
11.9095	0.0095809737806988
11.9105	0.0096210707108083
11.9115	0.0096611676409177
11.9125	0.0097012645710272
11.9135	0.0097413615011367
11.9145	0.0097814584312461
11.9155	0.0098215553613556
11.9165	0.0098616522914650
11.9175	0.0099017492215745
11.9185	0.0099418461516840
11.9195	0.0099819430817934
11.9205	0.0100220400119029
11.9215	0.0100621369420123
11.9225	0.0101022338721218
11.9235	0.0101423308022313
11.9245	0.0101824277323407
11.9255	0.0102225246624502
11.9265	0.0102626215925597
11.9275	0.0103027185226691
11.9285	0.0103428154527786
11.9295	0.0103829123828880
11.9305	0.0104230093129975
11.9315	0.0104631062431070
11.9325	0.0105032031732164
11.9335	0.0105433001033259
11.9345	0.0105833970334353
11.9355	0.0106234939635448
11.9365	0.0106466614284954
11.9375	0.0106521920395450
11.9385	0.0106577226505945
11.9395	0.0106632532616441
11.9405	0.0106687838726937
11.9415	0.0106743144837433
11.9425	0.0106798450947929
11.9435	0.0106853757058425
11.9445	0.0106909063168920
11.9455	0.0106964369279416
11.9465	0.0107019675389912
11.9475	0.0107074981500408
11.9485	0.0107130287610904
11.9495	0.0107185593721399
11.9505	0.0107240899831895
11.9515	0.0107296205942391
11.9525	0.0107351512052887
11.9535	0.0107406818163383
11.9545	0.0107462124273879
11.9555	0.0107517430384374
11.9565	0.0107572736494870
11.9575	0.0107628042605366
11.9585	0.0107683348715862
11.9595	0.0107738654826358
11.9605	0.0107793960936853
11.9615	0.0107849267047349
11.9625	0.0107904573157845
11.9635	0.0107959879268341
11.9645	0.0108015185378837
11.9655	0.0108070491489333
11.9665	0.0108125797599828
11.9675	0.0108181103710324
11.9685	0.0108236409820820
11.9695	0.0108291715931316
11.9705	0.0108347022041812
11.9715	0.0108402328152308
11.9725	0.0108457634262803
11.9735	0.0108512940373299
11.9745	0.0108568246483795
11.9755	0.0108623552594291
11.9765	0.0108678858704787
11.9775	0.0108734164815282
11.9785	0.0108789470925778
11.9795	0.0108844777036274
11.9805	0.0108900083146770
11.9815	0.0108955389257266
11.9825	0.0109010695367762
11.9835	0.0109066001478257
11.9845	0.0109121307588753
11.9855	0.0109176613699249
11.9865	0.0109231919809745
11.9875	0.0109287225920241
11.9885	0.0109342532030736
11.9895	0.0109397838141232
11.9905	0.0109453144251728
11.9915	0.0109508450362224
11.9925	0.0109563756472720
11.9935	0.0109619062583216
11.9945	0.0109674368693711
11.9955	0.0109729674804207
11.9965	0.0109784980914703
11.9975	0.0109840287025199
11.9985	0.0109895593135695
11.9995	0.0109950899246190
12.0005	0.0110006205356686
12.0015	0.0110061511467182
12.0025	0.0110116817577678
12.0035	0.0110172123688174
12.0045	0.0110227429798670
12.0055	0.0110282735909165
12.0065	0.0110338042019661
12.0075	0.0110393348130157
12.0085	0.0110448654240653
12.0095	0.0110503960351149
12.0105	0.0110559266461644
12.0115	0.0110614572572140
12.0125	0.0110669878682636
12.0135	0.0110725184793132
12.0145	0.0110780490903628
12.0155	0.0110835797014124
12.0165	0.0110891103124619
12.0175	0.0110946409235115
12.0185	0.0111001715345611
12.0195	0.0111057021456107
12.0205	0.0111112327566603
12.0215	0.0111167633677098
12.0225	0.0111222939787594
12.0235	0.0111278245898090
12.0245	0.0111333552008586
12.0255	0.0111388858119082
12.0265	0.0111444164229578
12.0275	0.0111499470340073
12.0285	0.0111554776450569
12.0295	0.0111610082561065
12.0305	0.0111665388671561
12.0315	0.0111720694782057
12.0325	0.0111776000892552
12.0335	0.0111831307003048
12.0345	0.0111886613113544
12.0355	0.0111941919224040
12.0365	0.0111997225334536
12.0375	0.0112052531445032
12.0385	0.0112107837555527
12.0395	0.0112163143666023
12.0405	0.0112218449776519
12.0415	0.0112273755887015
12.0425	0.0112329061997511
12.0435	0.0112384368108006
12.0445	0.0112439674218502
12.0455	0.0112494980328998
12.0465	0.0112550286439494
12.0475	0.0112605592549990
12.0485	0.0112660898660486
12.0495	0.0112716204770981
12.0505	0.0112771510881477
12.0515	0.0112826816991973
12.0525	0.0112882123102469
12.0535	0.0112937429212965
12.0545	0.0112992735323460
12.0555	0.0113048041433956
12.0565	0.0113103347544452
12.0575	0.0113158653654948
12.0585	0.0113213959765444
12.0595	0.0113269265875940
12.0605	0.0113324571986435
12.0615	0.0113379878096931
12.0625	0.0113435184207427
12.0635	0.0113490490317923
12.0645	0.0113545796428419
12.0655	0.0113601102538915
12.0665	0.0113656408649410
12.0675	0.0113711714759906
12.0685	0.0113767020870402
12.0695	0.0113822326980898
12.0705	0.0113877633091394
12.0715	0.0113932939201889
12.0725	0.0113988245312385
12.0735	0.0114043551422881
12.0745	0.0114098857533377
12.0755	0.0114154163643873
12.0765	0.0114209469754369
12.0775	0.0114264775864864
12.0785	0.0114320081975360
12.0795	0.0114375388085856
12.0805	0.0114430694196352
12.0815	0.0114486000306848
12.0825	0.0114541306417343
12.0835	0.0114596612527839
12.0845	0.0114614815292734
12.0855	0.0114587162237486
12.0865	0.0114559509182238
12.0875	0.0114531856126990
12.0885	0.0114504203071742
12.0895	0.0114476550016494
12.0905	0.0114448896961246
12.0915	0.0114421243905998
12.0925	0.0114393590850751
12.0935	0.0114365937795503
12.0945	0.0114338284740255
12.0955	0.0114310631685007
12.0965	0.0114282978629759
12.0975	0.0114255325574511
12.0985	0.0114227672519263
12.0995	0.0114200019464015
12.1005	0.0114172366408767
12.1015	0.0114144713353519
12.1025	0.0114117060298271
12.1035	0.0114089407243023
12.1045	0.0114061754187776
12.1055	0.0114034101132528
12.1065	0.0114006448077280
12.1075	0.0113978795022032
12.1085	0.0113951141966784
12.1095	0.0113923488911536
12.1105	0.0113895835856288
12.1115	0.0113868182801040
12.1125	0.0113840529745792
12.1135	0.0113812876690544
12.1145	0.0113785223635296
12.1155	0.0113757570580049
12.1165	0.0113729917524801
12.1175	0.0113702264469553
12.1185	0.0113674611414305
12.1195	0.0113646958359057
12.1205	0.0113619305303809
12.1215	0.0113591652248561
12.1225	0.0113563999193313
12.1235	0.0113536346138065
12.1245	0.0113508693082817
12.1255	0.0113481040027569
12.1265	0.0113453386972321
12.1275	0.0113425733917074
12.1285	0.0113398080861826
12.1295	0.0113370427806578
12.1305	0.0113342774751330
12.1315	0.0113315121696082
12.1325	0.0113287468640834
12.1335	0.0113259815585586
12.1345	0.0113232162530338
12.1355	0.0113204509475090
12.1365	0.0113176856419842
12.1375	0.0113149203364594
12.1385	0.0113121550309346
12.1395	0.0113093897254099
12.1405	0.0113066244198851
12.1415	0.0113038591143603
12.1425	0.0113010938088355
12.1435	0.0112983285033107
12.1445	0.0112955631977859
12.1455	0.0112927978922611
12.1465	0.0112900325867363
12.1475	0.0112872672812115
12.1485	0.0112845019756867
12.1495	0.0112817366701619
12.1505	0.0112789713646372
12.1515	0.0112762060591124
12.1525	0.0112734407535876
12.1535	0.0112706754480628
12.1545	0.0112679101425380
12.1555	0.0112651448370132
12.1565	0.0112623795314884
12.1575	0.0112596142259636
12.1585	0.0112568489204388
12.1595	0.0112540836149140
12.1605	0.0112513183093892
12.1615	0.0112485530038644
12.1625	0.0112457876983397
12.1635	0.0112430223928149
12.1645	0.0112402570872901
12.1655	0.0112374917817653
12.1665	0.0112347264762405
12.1675	0.0112319611707157
12.1685	0.0112291958651909
12.1695	0.0112264305596661
12.1705	0.0112236652541413
12.1715	0.0112208999486165
12.1725	0.0112181346430917
12.1735	0.0112153693375670
12.1745	0.0112126040320422
12.1755	0.0112098387265174
12.1765	0.0112070734209926
12.1775	0.0112043081154678
12.1785	0.0112015428099430
12.1795	0.0111987775044182
12.1805	0.0111960121988934
12.1815	0.0111932468933686
12.1825	0.0111904815878438
12.1835	0.0111877162823190
12.1845	0.0111849509767942
12.1855	0.0111821856712695
12.1865	0.0111794203657447
12.1875	0.0111766550602199
12.1885	0.0111738897546951
12.1895	0.0111711244491703
12.1905	0.0111683591436455
12.1915	0.0111655938381207
12.1925	0.0111628285325959
12.1935	0.0111600632270711
12.1945	0.0111572979215463
12.1955	0.0111545326160215
12.1965	0.0111517673104967
12.1975	0.0111490020049720
12.1985	0.0111462366994472
12.1995	0.0111434713939224
12.2005	0.0111407060883976
12.2015	0.0111379407828728
12.2025	0.0111351754773480
12.2035	0.0111324101718232
12.2045	0.0111296448662984
12.2055	0.0111268795607736
12.2065	0.0111241142552488
12.2075	0.0111213489497240
12.2085	0.0111185836441993
12.2095	0.0111158183386745
12.2105	0.0111130530331497
12.2115	0.0111102877276249
12.2125	0.0111075224221001
12.2135	0.0111047571165753
12.2145	0.0111019918110505
12.2155	0.0110992265055257
12.2165	0.0110964612000009
12.2175	0.0110936958944761
12.2185	0.0110909305889513
12.2195	0.0110881652834265
12.2205	0.0110853999779018
12.2215	0.0110826346723770
12.2225	0.0110798693668522
12.2235	0.0110771040613274
12.2245	0.0110743387558026
12.2255	0.0110715734502778
12.2265	0.0110688081447530
12.2275	0.0110660428392282
12.2285	0.0110632775337034
12.2295	0.0110605122281786
12.2305	0.0110577469226538
12.2315	0.0110549816171290
12.2325	0.0110578123074078
12.2335	0.0110688735295069
12.2345	0.0110799347516061
12.2355	0.0110909959737052
12.2365	0.0111020571958044
12.2375	0.0111131184179036
12.2385	0.0111241796400027
12.2395	0.0111352408621019
12.2405	0.0111463020842010
12.2415	0.0111573633063002
12.2425	0.0111684245283994
12.2435	0.0111794857504985
12.2445	0.0111905469725977
12.2455	0.0112016081946969
12.2465	0.0112126694167960
12.2475	0.0112237306388952
12.2485	0.0112347918609943
12.2495	0.0112458530830935
12.2505	0.0112569143051927
12.2515	0.0112679755272918
12.2525	0.0112790367493910
12.2535	0.0112900979714902
12.2545	0.0113011591935893
12.2555	0.0113122204156885
12.2565	0.0113232816377876
12.2575	0.0113343428598868
12.2585	0.0113454040819860
12.2595	0.0113564653040851
12.2605	0.0113675265261843
12.2615	0.0113785877482834
12.2625	0.0113896489703826
12.2635	0.0114007101924818
12.2645	0.0114117714145809
12.2655	0.0114228326366801
12.2665	0.0114338938587793
12.2675	0.0114449550808784
12.2685	0.0114560163029776
12.2695	0.0114670775250767
12.2705	0.0114781387471759
12.2715	0.0114891999692751
12.2725	0.0115002611913742
12.2735	0.0115113224134734
12.2745	0.0115223836355726
12.2755	0.0115334448576717
12.2765	0.0115445060797709
12.2775	0.0115555673018700
12.2785	0.0115666285239692
12.2795	0.0115776897460684
12.2805	0.0115887509681675
12.2815	0.0115998121902667
12.2825	0.0116108734123658
12.2835	0.0116219346344650
12.2845	0.0116329958565642
12.2855	0.0116440570786633
12.2865	0.0116551183007625
12.2875	0.0116661795228617
12.2885	0.0116772407449608
12.2895	0.0116883019670600
12.2905	0.0116993631891591
12.2915	0.0117104244112583
12.2925	0.0117214856333575
12.2935	0.0117325468554566
12.2945	0.0117436080775558
12.2955	0.0117546692996550
12.2965	0.0117657305217541
12.2975	0.0117767917438533
12.2985	0.0117878529659524
12.2995	0.0117989141880516
12.3005	0.0118099754101508
12.3015	0.0118210366322499
12.3025	0.0118320978543491
12.3035	0.0118431590764482
12.3045	0.0118542202985474
12.3055	0.0118652815206466
12.3065	0.0118763427427457
12.3075	0.0118874039648449
12.3085	0.0118984651869441
12.3095	0.0119095264090432
12.3105	0.0119205876311424
12.3115	0.0119316488532415
12.3125	0.0119427100753407
12.3135	0.0119537712974399
12.3145	0.0119648325195390
12.3155	0.0119758937416382
12.3165	0.0119869549637373
12.3175	0.0119980161858365
12.3185	0.0120090774079357
12.3195	0.0120201386300348
12.3205	0.0120311998521340
12.3215	0.0120422610742332
12.3225	0.0120533222963323
12.3235	0.0120643835184315
12.3245	0.0120754447405306
12.3255	0.0120865059626298
12.3265	0.0120975671847290
12.3275	0.0121086284068281
12.3285	0.0121196896289273
12.3295	0.0121307508510265
12.3305	0.0121418120731256
12.3315	0.0121528732952248
12.3325	0.0121639345173239
12.3335	0.0121749957394231
12.3345	0.0121860569615223
12.3355	0.0121971181836214
12.3365	0.0122081794057206
12.3375	0.0122192406278198
12.3385	0.0122303018499189
12.3395	0.0122413630720181
12.3405	0.0122524242941172
12.3415	0.0122634855162164
12.3425	0.0122745467383156
12.3435	0.0122856079604147
12.3445	0.0122966691825139
12.3455	0.0123077304046130
12.3465	0.0123187916267122
12.3475	0.0123298528488114
12.3485	0.0123409140709105
12.3495	0.0123519752930097
12.3505	0.0123630365151089
12.3515	0.0123740977372080
12.3525	0.0123851589593072
12.3535	0.0123962201814063
12.3545	0.0124072814035055
12.3555	0.0124183426256047
12.3565	0.0124294038477038
12.3575	0.0124404650698030
12.3585	0.0124515262919021
12.3595	0.0124625875140013
12.3605	0.0124736487361005
12.3615	0.0124847099581996
12.3625	0.0124957711802988
12.3635	0.0125068324023980
12.3645	0.0125178936244971
12.3655	0.0125289548465963
12.3665	0.0125400160686954
12.3675	0.0125510772907946
12.3685	0.0125621385128938
12.3695	0.0125731997349929
12.3705	0.0125842609570921
12.3715	0.0125953221791913
12.3725	0.0126063834012904
12.3735	0.0126174446233896
12.3745	0.0126285058454887
12.3755	0.0126395670675879
12.3765	0.0126506282896871
12.3775	0.0126616895117862
12.3785	0.0126727507338854
12.3795	0.0126838119559845
12.3805	0.0126733383451879
12.3815	0.0126249454985040
12.3825	0.0125765526518202
12.3835	0.0125281598051364
12.3845	0.0124797669584525
12.3855	0.0124313741117687
12.3865	0.0123829812650849
12.3875	0.0123345884184010
12.3885	0.0122861955717172
12.3895	0.0122378027250334
12.3905	0.0121894098783495
12.3915	0.0121410170316657
12.3925	0.0120926241849819
12.3935	0.0120442313382980
12.3945	0.0119958384916142
12.3955	0.0119474456449304
12.3965	0.0118990527982465
12.3975	0.0118506599515627
12.3985	0.0118022671048789
12.3995	0.0117538742581950
12.4005	0.0117054814115112
12.4015	0.0116570885648274
12.4025	0.0116086957181435
12.4035	0.0115603028714597
12.4045	0.0115119100247759
12.4055	0.0114635171780920
12.4065	0.0114151243314082
12.4075	0.0113667314847244
12.4085	0.0113183386380405
12.4095	0.0112699457913567
12.4105	0.0112215529446729
12.4115	0.0111731600979890
12.4125	0.0111247672513052
12.4135	0.0110763744046214
12.4145	0.0110279815579375
12.4155	0.0109795887112537
12.4165	0.0109311958645699
12.4175	0.0108828030178860
12.4185	0.0108344101712022
12.4195	0.0107860173245184
12.4205	0.0107376244778345
12.4215	0.0106892316311507
12.4225	0.0106408387844669
12.4235	0.0105924459377830
12.4245	0.0105440530910992
12.4255	0.0104956602444154
12.4265	0.0104472673977315
12.4275	0.0103988745510477
12.4285	0.0103504817043639
12.4295	0.0103020888576800
12.4305	0.0102536960109962
12.4315	0.0102053031643124
12.4325	0.0101569103176285
12.4335	0.0101085174709447
12.4345	0.0100601246242609
12.4355	0.0100117317775770
12.4365	0.0099633389308932
12.4375	0.0099149460842094
12.4385	0.0098665532375255
12.4395	0.0098181603908417
12.4405	0.0097697675441579
12.4415	0.0097213746974740
12.4425	0.0096729818507902
12.4435	0.0096245890041064
12.4445	0.0095761961574225
12.4455	0.0095278033107387
12.4465	0.0094794104640549
12.4475	0.0094310176173710
12.4485	0.0093826247706872
12.4495	0.0093342319240034
12.4505	0.0092858390773195
12.4515	0.0092374462306357
12.4525	0.0091890533839519
12.4535	0.0091406605372680
12.4545	0.0090922676905842
12.4555	0.0090438748439004
12.4565	0.0089954819972165
12.4575	0.0089470891505327
12.4585	0.0088986963038489
12.4595	0.0088503034571650
12.4605	0.0088019106104812
12.4615	0.0087535177637974
12.4625	0.0087051249171135
12.4635	0.0086567320704297
12.4645	0.0086083392237459
12.4655	0.0085599463770620
12.4665	0.0085115535303782
12.4675	0.0084631606836944
12.4685	0.0084147678370105
12.4695	0.0083663749903267
12.4705	0.0083179821436429
12.4715	0.0082695892969590
12.4725	0.0082211964502752
12.4735	0.0081728036035914
12.4745	0.0081244107569075
12.4755	0.0080760179102237
12.4765	0.0080276250635399
12.4775	0.0079792322168560
12.4785	0.0079308393701722
12.4795	0.0078824465234884
12.4805	0.0078340536768045
12.4815	0.0077856608301207
12.4825	0.0077372679834369
12.4835	0.0076888751367530
12.4845	0.0076404822900692
12.4855	0.0075920894433854
12.4865	0.0075436965967015
12.4875	0.0074953037500177
12.4885	0.0074469109033339
12.4895	0.0073985180566500
12.4905	0.0073501252099662
12.4915	0.0073017323632824
12.4925	0.0072533395165985
12.4935	0.0072049466699147
12.4945	0.0071565538232309
12.4955	0.0071081609765470
12.4965	0.0070597681298632
12.4975	0.0070113752831794
12.4985	0.0069629824364955
12.4995	0.0069145895898117
12.5005	0.0068661967431279
12.5015	0.0068178038964440
12.5025	0.0067694110497602
12.5035	0.0067210182030764
12.5045	0.0066726253563925
12.5055	0.0066242325097087
12.5065	0.0065758396630249
12.5075	0.0065274468163410
12.5085	0.0064790539696572
12.5095	0.0064306611229734
12.5105	0.0063822682762895
12.5115	0.0063338754296057
12.5125	0.0062854825829219
12.5135	0.0062370897362380
12.5145	0.0061886968895542
12.5155	0.0061403040428704
12.5165	0.0060919111961865
12.5175	0.0060435183495027
12.5185	0.0059951255028189
12.5195	0.0059467326561350
12.5205	0.0058983398094512
12.5215	0.0058499469627674
12.5225	0.0058015541160835
12.5235	0.0057531612693997
12.5245	0.0057047684227159
12.5255	0.0056563755760320
12.5265	0.0056079827293482
12.5275	0.0055595898826644
12.5285	0.0055328560431433
12.5295	0.0055522131818169
12.5305	0.0055715703204904
12.5315	0.0055909274591639
12.5325	0.0056102845978375
12.5335	0.0056296417365110
12.5345	0.0056489988751845
12.5355	0.0056683560138581
12.5365	0.0056877131525316
12.5375	0.0057070702912051
12.5385	0.0057264274298787
12.5395	0.0057457845685522
12.5405	0.0057651417072257
12.5415	0.0057844988458993
12.5425	0.0058038559845728
12.5435	0.0058232131232463
12.5445	0.0058425702619199
12.5455	0.0058619274005934
12.5465	0.0058812845392669
12.5475	0.0059006416779405
12.5485	0.0059199988166140
12.5495	0.0059393559552875
12.5505	0.0059587130939611
12.5515	0.0059780702326346
12.5525	0.0059974273713081
12.5535	0.0060167845099817
12.5545	0.0060361416486552
12.5555	0.0060554987873287
12.5565	0.0060748559260023
12.5575	0.0060942130646758
12.5585	0.0061135702033493
12.5595	0.0061329273420229
12.5605	0.0061522844806964
12.5615	0.0061716416193699
12.5625	0.0061909987580435
12.5635	0.0062103558967170
12.5645	0.0062297130353905
12.5655	0.0062490701740641
12.5665	0.0062684273127376
12.5675	0.0062877844514111
12.5685	0.0063071415900847
12.5695	0.0063264987287582
12.5705	0.0063458558674317
12.5715	0.0063652130061053
12.5725	0.0063845701447788
12.5735	0.0064039272834523
12.5745	0.0064232844221259
12.5755	0.0064426415607994
12.5765	0.0064619986994729
12.5775	0.0064813558381465
12.5785	0.0065007129768200
12.5795	0.0065200701154935
12.5805	0.0065394272541671
12.5815	0.0065587843928406
12.5825	0.0065781415315141
12.5835	0.0065974986701877
12.5845	0.0066168558088612
12.5855	0.0066362129475347
12.5865	0.0066555700862083
12.5875	0.0066749272248818
12.5885	0.0066942843635553
12.5895	0.0067136415022289
12.5905	0.0067329986409024
12.5915	0.0067523557795759
12.5925	0.0067717129182495
12.5935	0.0067910700569230
12.5945	0.0068104271955965
12.5955	0.0068297843342701
12.5965	0.0068491414729436
12.5975	0.0068684986116171
12.5985	0.0068878557502906
12.5995	0.0069072128889642
12.6005	0.0069265700276377
12.6015	0.0069459271663112
12.6025	0.0069652843049848
12.6035	0.0069846414436583
12.6045	0.0070039985823318
12.6055	0.0070233557210054
12.6065	0.0070427128596789
12.6075	0.0070620699983524
12.6085	0.0070814271370260
12.6095	0.0071007842756995
12.6105	0.0071201414143730
12.6115	0.0071394985530466
12.6125	0.0071588556917201
12.6135	0.0071782128303936
12.6145	0.0071975699690672
12.6155	0.0072169271077407
12.6165	0.0072362842464142
12.6175	0.0072556413850878
12.6185	0.0072749985237613
12.6195	0.0072943556624348
12.6205	0.0073137128011084
12.6215	0.0073330699397819
12.6225	0.0073524270784554
12.6235	0.0073717842171290
12.6245	0.0073911413558025
12.6255	0.0074104984944760
12.6265	0.0074298556331496
12.6275	0.0074492127718231
12.6285	0.0074685699104966
12.6295	0.0074879270491702
12.6305	0.0075072841878437
12.6315	0.0075266413265172
12.6325	0.0075459984651908
12.6335	0.0075653556038643
12.6345	0.0075847127425378
12.6355	0.0076040698812114
12.6365	0.0076234270198849
12.6375	0.0076427841585584
12.6385	0.0076621412972320
12.6395	0.0076814984359055
12.6405	0.0077008555745790
12.6415	0.0077202127132526
12.6425	0.0077395698519261
12.6435	0.0077589269905996
12.6445	0.0077782841292732
12.6455	0.0077976412679467
12.6465	0.0078169984066202
12.6475	0.0078363555452938
12.6485	0.0078557126839673
12.6495	0.0078750698226408
12.6505	0.0078944269613144
12.6515	0.0079137840999879
12.6525	0.0079331412386614
12.6535	0.0079524983773350
12.6545	0.0079718555160085
12.6555	0.0079912126546820
12.6565	0.0080105697933556
12.6575	0.0080299269320291
12.6585	0.0080492840707026
12.6595	0.0080686412093762
12.6605	0.0080879983480497
12.6615	0.0081073554867232
12.6625	0.0081267126253968
12.6635	0.0081460697640703
12.6645	0.0081654269027438
12.6655	0.0081847840414173
12.6665	0.0082041411800909
12.6675	0.0082234983187644
12.6685	0.0082428554574379
12.6695	0.0082622125961115
12.6705	0.0082815697347850
12.6715	0.0083009268734585
12.6725	0.0083202840121321
12.6735	0.0083396411508056
12.6745	0.0083589982894791
12.6755	0.0083783554281527
12.6765	0.0084084430359837
12.6775	0.0084665144520043
12.6785	0.0085245858680249
12.6795	0.0085826572840455
12.6805	0.0086407287000661
12.6815	0.0086988001160867
12.6825	0.0087568715321073
12.6835	0.0088149429481279
12.6845	0.0088730143641485
12.6855	0.0089310857801691
12.6865	0.0089891571961897
12.6875	0.0090472286122103
12.6885	0.0091053000282309
12.6895	0.0091633714442515
12.6905	0.0092214428602721
12.6915	0.0092795142762927
12.6925	0.0093375856923133
12.6935	0.0093956571083339
12.6945	0.0094537285243545
12.6955	0.0095117999403751
12.6965	0.0095698713563957
12.6975	0.0096279427724163
12.6985	0.0096860141884369
12.6995	0.0097440856044575
12.7005	0.0098021570204781
12.7015	0.0098602284364987
12.7025	0.0099182998525193
12.7035	0.0099763712685400
12.7045	0.0100344426845606
12.7055	0.0100925141005812
12.7065	0.0101505855166018
12.7075	0.0102086569326224
12.7085	0.0102667283486430
12.7095	0.0103247997646636
12.7105	0.0103828711806842
12.7115	0.0104409425967048
12.7125	0.0104990140127254
12.7135	0.0105570854287460
12.7145	0.0106151568447666
12.7155	0.0106732282607872
12.7165	0.0107312996768078
12.7175	0.0107893710928284
12.7185	0.0108474425088490
12.7195	0.0109055139248696
12.7205	0.0109635853408902
12.7215	0.0110216567569108
12.7225	0.0110797281729314
12.7235	0.0111377995889520
12.7245	0.0111958710049726
12.7255	0.0112539424209932
12.7265	0.0113120138370138
12.7275	0.0113700852530344
12.7285	0.0114281566690550
12.7295	0.0114862280850756
12.7305	0.0115442995010962
12.7315	0.0116023709171168
12.7325	0.0116604423331374
12.7335	0.0117185137491580
12.7345	0.0117765851651786
12.7355	0.0118346565811992
12.7365	0.0118927279972198
12.7375	0.0119507994132404
12.7385	0.0120088708292610
12.7395	0.0120669422452816
12.7405	0.0121250136613022
12.7415	0.0121830850773228
12.7425	0.0122411564933434
12.7435	0.0122992279093640
12.7445	0.0123572993253846
12.7455	0.0124153707414052
12.7465	0.0124734421574258
12.7475	0.0125315135734464
12.7485	0.0125895849894670
12.7495	0.0126476564054876
12.7505	0.0127057278215082
12.7515	0.0127637992375288
12.7525	0.0128218706535494
12.7535	0.0128799420695700
12.7545	0.0129380134855907
12.7555	0.0129960849016113
12.7565	0.0130541563176319
12.7575	0.0131122277336525
12.7585	0.0131702991496731
12.7595	0.0132283705656937
12.7605	0.0132864419817143
12.7615	0.0133445133977349
12.7625	0.0134025848137555
12.7635	0.0134606562297761
12.7645	0.0135187276457967
12.7655	0.0135767990618173
12.7665	0.0136348704778379
12.7675	0.0136929418938585
12.7685	0.0137510133098791
12.7695	0.0138090847258997
12.7705	0.0138671561419203
12.7715	0.0139252275579409
12.7725	0.0139832989739615
12.7735	0.0140413703899821
12.7745	0.0140994418060027
12.7755	0.0141575132220233
12.7765	0.0142155846380439
12.7775	0.0142736560540645
12.7785	0.0143317274700851
12.7795	0.0143897988861057
12.7805	0.0144478703021263
12.7815	0.0145059417181469
12.7825	0.0145640131341675
12.7835	0.0146220845501881
12.7845	0.0146801559662087
12.7855	0.0147382273822293
12.7865	0.0147962987982499
12.7875	0.0148543702142705
12.7885	0.0149124416302911
12.7895	0.0149705130463117
12.7905	0.0150285844623323
12.7915	0.0150866558783529
12.7925	0.0151447272943735
12.7935	0.0152027987103941
12.7945	0.0152608701264147
12.7955	0.0153189415424353
12.7965	0.0153770129584559
12.7975	0.0154350843744765
12.7985	0.0154931557904971
12.7995	0.0155512272065177
12.8005	0.0156092986225383
12.8015	0.0156673700385589
12.8025	0.0157254414545795
12.8035	0.0157835128706001
12.8045	0.0158415842866208
12.8055	0.0158996557026414
12.8065	0.0159577271186620
12.8075	0.0160157985346826
12.8085	0.0160738699507032
12.8095	0.0161319413667238
12.8105	0.0161900127827444
12.8115	0.0162480841987650
12.8125	0.0163061556147856
12.8135	0.0163642270308062
12.8145	0.0164222984468268
12.8155	0.0164803698628474
12.8165	0.0165384412788680
12.8175	0.0165965126948886
12.8185	0.0166545841109092
12.8195	0.0167126555269298
12.8205	0.0167707269429504
12.8215	0.0168287983589710
12.8225	0.0168868697749916
12.8235	0.0169449411910122
12.8245	0.0169764084017092
12.8255	0.0169211022912134
12.8265	0.0168657961807175
12.8275	0.0168104900702217
12.8285	0.0167551839597259
12.8295	0.0166998778492301
12.8305	0.0166445717387343
12.8315	0.0165892656282385
12.8325	0.0165339595177427
12.8335	0.0164786534072469
12.8345	0.0164233472967511
12.8355	0.0163680411862552
12.8365	0.0163127350757594
12.8375	0.0162574289652636
12.8385	0.0162021228547678
12.8395	0.0161468167442720
12.8405	0.0160915106337762
12.8415	0.0160362045232804
12.8425	0.0159808984127846
12.8435	0.0159255923022888
12.8445	0.0158702861917929
12.8455	0.0158149800812971
12.8465	0.0157596739708013
12.8475	0.0157043678603055
12.8485	0.0156490617498097
12.8495	0.0155937556393139
12.8505	0.0155384495288181
12.8515	0.0154831434183223
12.8525	0.0154278373078265
12.8535	0.0153725311973307
12.8545	0.0153172250868348
12.8555	0.0152619189763390
12.8565	0.0152066128658432
12.8575	0.0151513067553474
12.8585	0.0150960006448516
12.8595	0.0150406945343558
12.8605	0.0149853884238600
12.8615	0.0149300823133642
12.8625	0.0148747762028684
12.8635	0.0148194700923725
12.8645	0.0147641639818767
12.8655	0.0147088578713809
12.8665	0.0146535517608851
12.8675	0.0145982456503893
12.8685	0.0145429395398935
12.8695	0.0144876334293977
12.8705	0.0144323273189019
12.8715	0.0143770212084061
12.8725	0.0143217150979102
12.8735	0.0142664089874144
12.8745	0.0142111028769186
12.8755	0.0141557967664228
12.8765	0.0141004906559270
12.8775	0.0140451845454312
12.8785	0.0139898784349354
12.8795	0.0139345723244396
12.8805	0.0138792662139438
12.8815	0.0138239601034479
12.8825	0.0137686539929521
12.8835	0.0137133478824563
12.8845	0.0136580417719605
12.8855	0.0136027356614647
12.8865	0.0135474295509689
12.8875	0.0134921234404731
12.8885	0.0134368173299773
12.8895	0.0133815112194815
12.8905	0.0133262051089857
12.8915	0.0132708989984898
12.8925	0.0132155928879940
12.8935	0.0131602867774982
12.8945	0.0131049806670024
12.8955	0.0130496745565066
12.8965	0.0129943684460108
12.8975	0.0129390623355150
12.8985	0.0128837562250192
12.8995	0.0128284501145234
12.9005	0.0127731440040275
12.9015	0.0127178378935317
12.9025	0.0126625317830359
12.9035	0.0126072256725401
12.9045	0.0125519195620443
12.9055	0.0124966134515485
12.9065	0.0124413073410527
12.9075	0.0123860012305569
12.9085	0.0123306951200611
12.9095	0.0122753890095652
12.9105	0.0122200828990694
12.9115	0.0121647767885736
12.9125	0.0121094706780778
12.9135	0.0120541645675820
12.9145	0.0119988584570862
12.9155	0.0119435523465904
12.9165	0.0118882462360946
12.9175	0.0118329401255988
12.9185	0.0117776340151029
12.9195	0.0117223279046071
12.9205	0.0116670217941113
12.9215	0.0116117156836155
12.9225	0.0115564095731197
12.9235	0.0115011034626239
12.9245	0.0114457973521281
12.9255	0.0113904912416323
12.9265	0.0113351851311365
12.9275	0.0112798790206407
12.9285	0.0112245729101448
12.9295	0.0111692667996490
12.9305	0.0111139606891532
12.9315	0.0110586545786574
12.9325	0.0110033484681616
12.9335	0.0109480423576658
12.9345	0.0108927362471700
12.9355	0.0108374301366742
12.9365	0.0107821240261784
12.9375	0.0107268179156825
12.9385	0.0106715118051867
12.9395	0.0106162056946909
12.9405	0.0105608995841951
12.9415	0.0105055934736993
12.9425	0.0104502873632035
12.9435	0.0103949812527077
12.9445	0.0103396751422119
12.9455	0.0102843690317161
12.9465	0.0102290629212202
12.9475	0.0101737568107244
12.9485	0.0101184507002286
12.9495	0.0100631445897328
12.9505	0.0100078384792370
12.9515	0.0099525323687412
12.9525	0.0098972262582454
12.9535	0.0098419201477496
12.9545	0.0097866140372538
12.9555	0.0097313079267579
12.9565	0.0096760018162621
12.9575	0.0096206957057663
12.9585	0.0095653895952705
12.9595	0.0095100834847747
12.9605	0.0094547773742789
12.9615	0.0093994712637831
12.9625	0.0093441651532873
12.9635	0.0092888590427915
12.9645	0.0092335529322956
12.9655	0.0091782468217998
12.9665	0.0091229407113040
12.9675	0.0090676346008082
12.9685	0.0090123284903124
12.9695	0.0089570223798166
12.9705	0.0089017162693208
12.9715	0.0088464101588250
12.9725	0.0088171379458318
12.9735	0.0088973318060507
12.9745	0.0089775256662696
12.9755	0.0090577195264885
12.9765	0.0091379133867075
12.9775	0.0092181072469264
12.9785	0.0092983011071453
12.9795	0.0093784949673642
12.9805	0.0094586888275832
12.9815	0.0095388826878021
12.9825	0.0096190765480210
12.9835	0.0096992704082399
12.9845	0.0097794642684589
12.9855	0.0098596581286778
12.9865	0.0099398519888967
12.9875	0.0100200458491157
12.9885	0.0101002397093346
12.9895	0.0101804335695535
12.9905	0.0102606274297724
12.9915	0.0103408212899914
12.9925	0.0104210151502103
12.9935	0.0105012090104292
12.9945	0.0105814028706481
12.9955	0.0106615967308671
12.9965	0.0107417905910860
12.9975	0.0108219844513049
12.9985	0.0109021783115238
12.9995	0.0109823721717428
13.0005	0.0110625660319617
13.0015	0.0111427598921806
13.0025	0.0112229537523995
13.0035	0.0113031476126185
13.0045	0.0113833414728374
13.0055	0.0114635353330563
13.0065	0.0115437291932753
13.0075	0.0116239230534942
13.0085	0.0117041169137131
13.0095	0.0117843107739320
13.0105	0.0118645046341510
13.0115	0.0119446984943699
13.0125	0.0120248923545888
13.0135	0.0121050862148077
13.0145	0.0121852800750267
13.0155	0.0122654739352456
13.0165	0.0123456677954645
13.0175	0.0124258616556834
13.0185	0.0125060555159024
13.0195	0.0125862493761213
13.0205	0.0126664432363402
13.0215	0.0127466370965591
13.0225	0.0128268309567781
13.0235	0.0129070248169970
13.0245	0.0129872186772159
13.0255	0.0130674125374349
13.0265	0.0131476063976538
13.0275	0.0132278002578727
13.0285	0.0133079941180916
13.0295	0.0133881879783106
13.0305	0.0134683818385295
13.0315	0.0135485756987484
13.0325	0.0136287695589673
13.0335	0.0137089634191863
13.0345	0.0137891572794052
13.0355	0.0138693511396241
13.0365	0.0139495449998430
13.0375	0.0140297388600620
13.0385	0.0141099327202809
13.0395	0.0141901265804998
13.0405	0.0142703204407187
13.0415	0.0143505143009377
13.0425	0.0144307081611566
13.0435	0.0145109020213755
13.0445	0.0145910958815945
13.0455	0.0146712897418134
13.0465	0.0147514836020323
13.0475	0.0148316774622512
13.0485	0.0149118713224702
13.0495	0.0149920651826891
13.0505	0.0150722590429080
13.0515	0.0151524529031269
13.0525	0.0152326467633459
13.0535	0.0153128406235648
13.0545	0.0153930344837837
13.0555	0.0154732283440026
13.0565	0.0155534222042216
13.0575	0.0156336160644405
13.0585	0.0157138099246594
13.0595	0.0157940037848783
13.0605	0.0158741976450973
13.0615	0.0159543915053162
13.0625	0.0160345853655351
13.0635	0.0161147792257541
13.0645	0.0161949730859730
13.0655	0.0162751669461919
13.0665	0.0163553608064108
13.0675	0.0164355546666298
13.0685	0.0165157485268487
13.0695	0.0165959423870676
13.0705	0.0166761362472865
13.0715	0.0167563301075055
13.0725	0.0168365239677244
13.0735	0.0169167178279433
13.0745	0.0169969116881622
13.0755	0.0170771055483812
13.0765	0.0171572994086001
13.0775	0.0172374932688190
13.0785	0.0173176871290379
13.0795	0.0173978809892569
13.0805	0.0174780748494758
13.0815	0.0175582687096947
13.0825	0.0176384625699137
13.0835	0.0177186564301326
13.0845	0.0177988502903515
13.0855	0.0178790441505704
13.0865	0.0179592380107894
13.0875	0.0180394318710083
13.0885	0.0181196257312272
13.0895	0.0181998195914461
13.0905	0.0182800134516651
13.0915	0.0183602073118840
13.0925	0.0184404011721029
13.0935	0.0185205950323218
13.0945	0.0186007888925408
13.0955	0.0186809827527597
13.0965	0.0187611766129786
13.0975	0.0188413704731975
13.0985	0.0189215643334165
13.0995	0.0190017581936354
13.1005	0.0190819520538543
13.1015	0.0191621459140732
13.1025	0.0192423397742922
13.1035	0.0193225336345111
13.1045	0.0194027274947300
13.1055	0.0194829213549490
13.1065	0.0195631152151679
13.1075	0.0196433090753868
13.1085	0.0197235029356057
13.1095	0.0198036967958247
13.1105	0.0198838906560436
13.1115	0.0199640845162625
13.1125	0.0200442783764814
13.1135	0.0201244722367004
13.1145	0.0202046660969193
13.1155	0.0202848599571382
13.1165	0.0203650538173571
13.1175	0.0204452476775761
13.1185	0.0205254415377950
13.1195	0.0206056353980139
13.1205	0.0206732106455907
13.1215	0.0206690626873035
13.1225	0.0206649147290163
13.1235	0.0206607667707291
13.1245	0.0206566188124419
13.1255	0.0206524708541547
13.1265	0.0206483228958676
13.1275	0.0206441749375804
13.1285	0.0206400269792932
13.1295	0.0206358790210060
13.1305	0.0206317310627188
13.1315	0.0206275831044316
13.1325	0.0206234351461444
13.1335	0.0206192871878572
13.1345	0.0206151392295701
13.1355	0.0206109912712829
13.1365	0.0206068433129957
13.1375	0.0206026953547085
13.1385	0.0205985473964213
13.1395	0.0205943994381341
13.1405	0.0205902514798469
13.1415	0.0205861035215597
13.1425	0.0205819555632726
13.1435	0.0205778076049854
13.1445	0.0205736596466982
13.1455	0.0205695116884110
13.1465	0.0205653637301238
13.1475	0.0205612157718366
13.1485	0.0205570678135494
13.1495	0.0205529198552622
13.1505	0.0205487718969751
13.1515	0.0205446239386879
13.1525	0.0205404759804007
13.1535	0.0205363280221135
13.1545	0.0205321800638263
13.1555	0.0205280321055391
13.1565	0.0205238841472519
13.1575	0.0205197361889647
13.1585	0.0205155882306776
13.1595	0.0205114402723904
13.1605	0.0205072923141032
13.1615	0.0205031443558160
13.1625	0.0204989963975288
13.1635	0.0204948484392416
13.1645	0.0204907004809544
13.1655	0.0204865525226672
13.1665	0.0204824045643801
13.1675	0.0204782566060929
13.1685	0.0204741086478057
13.1695	0.0204699606895185
13.1705	0.0204658127312313
13.1715	0.0204616647729441
13.1725	0.0204575168146569
13.1735	0.0204533688563697
13.1745	0.0204492208980826
13.1755	0.0204450729397954
13.1765	0.0204409249815082
13.1775	0.0204367770232210
13.1785	0.0204326290649338
13.1795	0.0204284811066466
13.1805	0.0204243331483594
13.1815	0.0204201851900722
13.1825	0.0204160372317851
13.1835	0.0204118892734979
13.1845	0.0204077413152107
13.1855	0.0204035933569235
13.1865	0.0203994453986363
13.1875	0.0203952974403491
13.1885	0.0203911494820619
13.1895	0.0203870015237747
13.1905	0.0203828535654876
13.1915	0.0203787056072004
13.1925	0.0203745576489132
13.1935	0.0203704096906260
13.1945	0.0203662617323388
13.1955	0.0203621137740516
13.1965	0.0203579658157644
13.1975	0.0203538178574772
13.1985	0.0203496698991901
13.1995	0.0203455219409029
13.2005	0.0203413739826157
13.2015	0.0203372260243285
13.2025	0.0203330780660413
13.2035	0.0203289301077541
13.2045	0.0203247821494669
13.2055	0.0203206341911797
13.2065	0.0203164862328926
13.2075	0.0203123382746054
13.2085	0.0203081903163182
13.2095	0.0203040423580310
13.2105	0.0202998943997438
13.2115	0.0202957464414566
13.2125	0.0202915984831694
13.2135	0.0202874505248823
13.2145	0.0202833025665951
13.2155	0.0202791546083079
13.2165	0.0202750066500207
13.2175	0.0202708586917335
13.2185	0.0202667107334463
13.2195	0.0202625627751591
13.2205	0.0202584148168719
13.2215	0.0202542668585848
13.2225	0.0202501189002976
13.2235	0.0202459709420104
13.2245	0.0202418229837232
13.2255	0.0202376750254360
13.2265	0.0202335270671488
13.2275	0.0202293791088616
13.2285	0.0202252311505744
13.2295	0.0202210831922873
13.2305	0.0202169352340001
13.2315	0.0202127872757129
13.2325	0.0202086393174257
13.2335	0.0202044913591385
13.2345	0.0202003434008513
13.2355	0.0201961954425641
13.2365	0.0201920474842769
13.2375	0.0201878995259898
13.2385	0.0201837515677026
13.2395	0.0201796036094154
13.2405	0.0201754556511282
13.2415	0.0201713076928410
13.2425	0.0201671597345538
13.2435	0.0201630117762666
13.2445	0.0201588638179794
13.2455	0.0201547158596923
13.2465	0.0201505679014051
13.2475	0.0201464199431179
13.2485	0.0201422719848307
13.2495	0.0201381240265435
13.2505	0.0201339760682563
13.2515	0.0201298281099691
13.2525	0.0201256801516819
13.2535	0.0201215321933948
13.2545	0.0201173842351076
13.2555	0.0201132362768204
13.2565	0.0201090883185332
13.2575	0.0201049403602460
13.2585	0.0201007924019588
13.2595	0.0200966444436716
13.2605	0.0200924964853844
13.2615	0.0200883485270973
13.2625	0.0200842005688101
13.2635	0.0200800526105229
13.2645	0.0200759046522357
13.2655	0.0200717566939485
13.2665	0.0200676087356613
13.2675	0.0200634607773741
13.2685	0.0200641992277347
13.2695	0.0201056788106066
13.2705	0.0201471583934784
13.2715	0.0201886379763503
13.2725	0.0202301175592221
13.2735	0.0202715971420940
13.2745	0.0203130767249659
13.2755	0.0203545563078377
13.2765	0.0203960358907096
13.2775	0.0204375154735814
13.2785	0.0204789950564533
13.2795	0.0205204746393251
13.2805	0.0205619542221970
13.2815	0.0206034338050689
13.2825	0.0206449133879407
13.2835	0.0206863929708126
13.2845	0.0207278725536844
13.2855	0.0207693521365563
13.2865	0.0208108317194281
13.2875	0.0208523113023000
13.2885	0.0208937908851719
13.2895	0.0209352704680437
13.2905	0.0209767500509156
13.2915	0.0210182296337874
13.2925	0.0210597092166593
13.2935	0.0211011887995311
13.2945	0.0211426683824030
13.2955	0.0211841479652749
13.2965	0.0212256275481467
13.2975	0.0212671071310186
13.2985	0.0213085867138904
13.2995	0.0213500662967623
13.3005	0.0213915458796341
13.3015	0.0214330254625060
13.3025	0.0214745050453779
13.3035	0.0215159846282497
13.3045	0.0215574642111216
13.3055	0.0215989437939934
13.3065	0.0216404233768653
13.3075	0.0216819029597371
13.3085	0.0217233825426090
13.3095	0.0217648621254809
13.3105	0.0218063417083527
13.3115	0.0218478212912246
13.3125	0.0218893008740964
13.3135	0.0219307804569683
13.3145	0.0219722600398401
13.3155	0.0220137396227120
13.3165	0.0220552192055839
13.3175	0.0220966987884557
13.3185	0.0221381783713276
13.3195	0.0221796579541994
13.3205	0.0222211375370713
13.3215	0.0222626171199431
13.3225	0.0223040967028150
13.3235	0.0223455762856869
13.3245	0.0223870558685587
13.3255	0.0224285354514306
13.3265	0.0224700150343024
13.3275	0.0225114946171743
13.3285	0.0225529742000461
13.3295	0.0225944537829180
13.3305	0.0226359333657899
13.3315	0.0226774129486617
13.3325	0.0227188925315336
13.3335	0.0227603721144054
13.3345	0.0228018516972773
13.3355	0.0228433312801491
13.3365	0.0228848108630210
13.3375	0.0229262904458929
13.3385	0.0229677700287647
13.3395	0.0230092496116366
13.3405	0.0230507291945084
13.3415	0.0230922087773803
13.3425	0.0231336883602521
13.3435	0.0231751679431240
13.3445	0.0232166475259959
13.3455	0.0232581271088677
13.3465	0.0232996066917396
13.3475	0.0233410862746114
13.3485	0.0233825658574833
13.3495	0.0234240454403551
13.3505	0.0234655250232270
13.3515	0.0235070046060989
13.3525	0.0235484841889707
13.3535	0.0235899637718426
13.3545	0.0236314433547144
13.3555	0.0236729229375863
13.3565	0.0237144025204581
13.3575	0.0237558821033300
13.3585	0.0237973616862019
13.3595	0.0238388412690737
13.3605	0.0238803208519456
13.3615	0.0239218004348174
13.3625	0.0239632800176893
13.3635	0.0240047596005611
13.3645	0.0240462391834330
13.3655	0.0240877187663049
13.3665	0.0241291983491767
13.3675	0.0241706779320486
13.3685	0.0242121575149204
13.3695	0.0242536370977923
13.3705	0.0242951166806641
13.3715	0.0243365962635360
13.3725	0.0243780758464079
13.3735	0.0244195554292797
13.3745	0.0244610350121516
13.3755	0.0245025145950234
13.3765	0.0245439941778953
13.3775	0.0245854737607671
13.3785	0.0246269533436390
13.3795	0.0246684329265109
13.3805	0.0247099125093827
13.3815	0.0247513920922546
13.3825	0.0247928716751264
13.3835	0.0248343512579983
13.3845	0.0248758308408701
13.3855	0.0249173104237420
13.3865	0.0249587900066138
13.3875	0.0250002695894857
13.3885	0.0250417491723576
13.3895	0.0250832287552294
13.3905	0.0251247083381013
13.3915	0.0251661879209731
13.3925	0.0252076675038450
13.3935	0.0252491470867168
13.3945	0.0252906266695887
13.3955	0.0253321062524606
13.3965	0.0253735858353324
13.3975	0.0254150654182043
13.3985	0.0254565450010761
13.3995	0.0254980245839480
13.4005	0.0255395041668198
13.4015	0.0255809837496917
13.4025	0.0256224633325636
13.4035	0.0256639429154354
13.4045	0.0257054224983073
13.4055	0.0257469020811791
13.4065	0.0257883816640510
13.4075	0.0258298612469228
13.4085	0.0258713408297947
13.4095	0.0259128204126666
13.4105	0.0259542999955384
13.4115	0.0259957795784103
13.4125	0.0260372591612821
13.4135	0.0260787387441540
13.4145	0.0261202183270258
13.4155	0.0261616979098977
13.4165	0.0262047845953434
13.4175	0.0262711519279383
13.4185	0.0263375192605333
13.4195	0.0264038865931283
13.4205	0.0264702539257233
13.4215	0.0265366212583182
13.4225	0.0266029885909132
13.4235	0.0266693559235082
13.4245	0.0267357232561032
13.4255	0.0268020905886981
13.4265	0.0268684579212931
13.4275	0.0269348252538881
13.4285	0.0270011925864831
13.4295	0.0270675599190780
13.4305	0.0271339272516730
13.4315	0.0272002945842680
13.4325	0.0272666619168630
13.4335	0.0273330292494579
13.4345	0.0273993965820529
13.4355	0.0274657639146479
13.4365	0.0275321312472429
13.4375	0.0275984985798378
13.4385	0.0276648659124328
13.4395	0.0277312332450278
13.4405	0.0277976005776228
13.4415	0.0278639679102177
13.4425	0.0279303352428127
13.4435	0.0279967025754077
13.4445	0.0280630699080027
13.4455	0.0281294372405976
13.4465	0.0281958045731926
13.4475	0.0282621719057876
13.4485	0.0283285392383826
13.4495	0.0283949065709775
13.4505	0.0284612739035725
13.4515	0.0285276412361675
13.4525	0.0285940085687625
13.4535	0.0286603759013574
13.4545	0.0287267432339524
13.4555	0.0287931105665474
13.4565	0.0288594778991424
13.4575	0.0289258452317373
13.4585	0.0289922125643323
13.4595	0.0290585798969273
13.4605	0.0291249472295223
13.4615	0.0291913145621172
13.4625	0.0292576818947122
13.4635	0.0293240492273072
13.4645	0.0293904165599022
13.4655	0.0294567838924971
13.4665	0.0295231512250921
13.4675	0.0295895185576871
13.4685	0.0296558858902821
13.4695	0.0297222532228770
13.4705	0.0297886205554720
13.4715	0.0298549878880670
13.4725	0.0299213552206620
13.4735	0.0299877225532569
13.4745	0.0300540898858519
13.4755	0.0301204572184469
13.4765	0.0301868245510419
13.4775	0.0302531918836368
13.4785	0.0303195592162318
13.4795	0.0303859265488268
13.4805	0.0304522938814218
13.4815	0.0305186612140167
13.4825	0.0305850285466117
13.4835	0.0306513958792067
13.4845	0.0307177632118017
13.4855	0.0307841305443966
13.4865	0.0308504978769916
13.4875	0.0309168652095866
13.4885	0.0309832325421816
13.4895	0.0310495998747765
13.4905	0.0311159672073715
13.4915	0.0311823345399665
13.4925	0.0312487018725615
13.4935	0.0313150692051564
13.4945	0.0313814365377514
13.4955	0.0314478038703464
13.4965	0.0315141712029414
13.4975	0.0315805385355363
13.4985	0.0316469058681313
13.4995	0.0317132732007263
13.5005	0.0317796405333213
13.5015	0.0318460078659162
13.5025	0.0319123751985112
13.5035	0.0319787425311062
13.5045	0.0320451098637012
13.5055	0.0321114771962961
13.5065	0.0321778445288911
13.5075	0.0322442118614861
13.5085	0.0323105791940811
13.5095	0.0323769465266760
13.5105	0.0324433138592710
13.5115	0.0325096811918660
13.5125	0.0325760485244610
13.5135	0.0326424158570559
13.5145	0.0327087831896509
13.5155	0.0327751505222459
13.5165	0.0328415178548409
13.5175	0.0329078851874358
13.5185	0.0329742525200308
13.5195	0.0330406198526258
13.5205	0.0331069871852208
13.5215	0.0331733545178157
13.5225	0.0332397218504107
13.5235	0.0333060891830057
13.5245	0.0333724565156007
13.5255	0.0334388238481956
13.5265	0.0335051911807906
13.5275	0.0335715585133856
13.5285	0.0336379258459806
13.5295	0.0337042931785755
13.5305	0.0337706605111705
13.5315	0.0338370278437655
13.5325	0.0339033951763605
13.5335	0.0339697625089554
13.5345	0.0340361298415504
13.5355	0.0341024971741454
13.5365	0.0341688645067404
13.5375	0.0342352318393353
13.5385	0.0343015991719303
13.5395	0.0343679665045253
13.5405	0.0344343338371203
13.5415	0.0345007011697152
13.5425	0.0345670685023102
13.5435	0.0346334358349052
13.5445	0.0346998031675002
13.5455	0.0347661705000951
13.5465	0.0348325378326901
13.5475	0.0348989051652851
13.5485	0.0349652724978801
13.5495	0.0350316398304750
13.5505	0.0350980071630700
13.5515	0.0351643744956650
13.5525	0.0352307418282600
13.5535	0.0352971091608549
13.5545	0.0353634764934499
13.5555	0.0354298438260449
13.5565	0.0354962111586399
13.5575	0.0355625784912348
13.5585	0.0356289458238298
13.5595	0.0356953131564248
13.5605	0.0357616804890198
13.5615	0.0358280478216147
13.5625	0.0358944151542097
13.5635	0.0359607824868047
13.5645	0.0360273937711062
13.5655	0.0361048223258004
13.5665	0.0361822508804945
13.5675	0.0362596794351886
13.5685	0.0363371079898827
13.5695	0.0364145365445769
13.5705	0.0364919650992710
13.5715	0.0365693936539651
13.5725	0.0366468222086593
13.5735	0.0367242507633534
13.5745	0.0368016793180475
13.5755	0.0368791078727417
13.5765	0.0369565364274358
13.5775	0.0370339649821299
13.5785	0.0371113935368240
13.5795	0.0371888220915182
13.5805	0.0372662506462123
13.5815	0.0373436792009064
13.5825	0.0374211077556006
13.5835	0.0374985363102947
13.5845	0.0375759648649888
13.5855	0.0376533934196830
13.5865	0.0377308219743771
13.5875	0.0378082505290712
13.5885	0.0378856790837653
13.5895	0.0379631076384595
13.5905	0.0380405361931536
13.5915	0.0381179647478477
13.5925	0.0381953933025419
13.5935	0.0382728218572360
13.5945	0.0383502504119301
13.5955	0.0384276789666243
13.5965	0.0385051075213184
13.5975	0.0385825360760125
13.5985	0.0386599646307067
13.5995	0.0387373931854008
13.6005	0.0388148217400949
13.6015	0.0388922502947890
13.6025	0.0389696788494832
13.6035	0.0390471074041773
13.6045	0.0391245359588714
13.6055	0.0392019645135656
13.6065	0.0392793930682597
13.6075	0.0393568216229538
13.6085	0.0394342501776480
13.6095	0.0395116787323421
13.6105	0.0395891072870362
13.6115	0.0396665358417303
13.6125	0.0397439643964245
13.6135	0.0398213929511186
13.6145	0.0398988215058127
13.6155	0.0399762500605069
13.6165	0.0400536786152010
13.6175	0.0401311071698951
13.6185	0.0402085357245893
13.6195	0.0402859642792834
13.6205	0.0403633928339775
13.6215	0.0404408213886717
13.6225	0.0405182499433658
13.6235	0.0405956784980599
13.6245	0.0406731070527540
13.6255	0.0407505356074482
13.6265	0.0408279641621423
13.6275	0.0409053927168364
13.6285	0.0409828212715306
13.6295	0.0410602498262247
13.6305	0.0411376783809188
13.6315	0.0412151069356129
13.6325	0.0412925354903071
13.6335	0.0413699640450012
13.6345	0.0414473925996953
13.6355	0.0415248211543895
13.6365	0.0416022497090836
13.6375	0.0416796782637777
13.6385	0.0417571068184719
13.6395	0.0418345353731660
13.6405	0.0419119639278601
13.6415	0.0419893924825543
13.6425	0.0420668210372484
13.6435	0.0421442495919425
13.6445	0.0422216781466366
13.6455	0.0422991067013308
13.6465	0.0423765352560249
13.6475	0.0424539638107190
13.6485	0.0425313923654132
13.6495	0.0426088209201073
13.6505	0.0426862494748014
13.6515	0.0427636780294956
13.6525	0.0428411065841897
13.6535	0.0429185351388838
13.6545	0.0429959636935780
13.6555	0.0430733922482721
13.6565	0.0431508208029662
13.6575	0.0432282493576603
13.6585	0.0433056779123545
13.6595	0.0433831064670486
13.6605	0.0434605350217427
13.6615	0.0435379635764369
13.6625	0.0436153921311310
13.6635	0.0436928206858251
13.6645	0.0437702492405193
13.6655	0.0438476777952134
13.6665	0.0439251063499075
13.6675	0.0440025349046016
13.6685	0.0440799634592958
13.6695	0.0441573920139899
13.6705	0.0442348205686840
13.6715	0.0443122491233782
13.6725	0.0443896776780723
13.6735	0.0444671062327664
13.6745	0.0445445347874606
13.6755	0.0446219633421547
13.6765	0.0446993918968488
13.6775	0.0447768204515429
13.6785	0.0448542490062371
13.6795	0.0449316775609312
13.6805	0.0450091061156253
13.6815	0.0450865346703195
13.6825	0.0451639632250136
13.6835	0.0452413917797077
13.6845	0.0453188203344019
13.6855	0.0453962488890960
13.6865	0.0454736774437901
13.6875	0.0455511059984842
13.6885	0.0456285345531784
13.6895	0.0457059631078725
13.6905	0.0457833916625666
13.6915	0.0458608202172608
13.6925	0.0459382487719549
13.6935	0.0460156773266490
13.6945	0.0460931058813432
13.6955	0.0461705344360373
13.6965	0.0462479629907314
13.6975	0.0463253915454256
13.6985	0.0464028201001197
13.6995	0.0464802486548138
13.7005	0.0465576772095079
13.7015	0.0466351057642021
13.7025	0.0467125343188962
13.7035	0.0467899628735903
13.7045	0.0468673914282845
13.7055	0.0469448199829786
13.7065	0.0470222485376727
13.7075	0.0470996770923669
13.7085	0.0471771056470610
13.7095	0.0472545342017551
13.7105	0.0473319627564492
13.7115	0.0474093913111434
13.7125	0.0474868198658375
13.7135	0.0478567895784772
13.7145	0.0482328711298487
13.7155	0.0486089526812202
13.7165	0.0489850342325917
13.7175	0.0493611157839632
13.7185	0.0497371973353347
13.7195	0.0501132788867062
13.7205	0.0504893604380778
13.7215	0.0508654419894493
13.7225	0.0512415235408208
13.7235	0.0516176050921923
13.7245	0.0519936866435638
13.7255	0.0523697681949353
13.7265	0.0527458497463068
13.7275	0.0531219312976783
13.7285	0.0534980128490498
13.7295	0.0538740944004213
13.7305	0.0542501759517928
13.7315	0.0546262575031643
13.7325	0.0550023390545358
13.7335	0.0553784206059073
13.7345	0.0557545021572788
13.7355	0.0561305837086503
13.7365	0.0565066652600218
13.7375	0.0568827468113933
13.7385	0.0572588283627648
13.7395	0.0576349099141363
13.7405	0.0580109914655078
13.7415	0.0583870730168793
13.7425	0.0587631545682508
13.7435	0.0591392361196224
13.7445	0.0595153176709939
13.7455	0.0598913992223654
13.7465	0.0602674807737369
13.7475	0.0606435623251084
13.7485	0.0610196438764799
13.7495	0.0613957254278514
13.7505	0.0617718069792229
13.7515	0.0621478885305944
13.7525	0.0625239700819659
13.7535	0.0629000516333374
13.7545	0.0632761331847089
13.7555	0.0636522147360804
13.7565	0.0640282962874519
13.7575	0.0644043778388234
13.7585	0.0647804593901949
13.7595	0.0651565409415664
13.7605	0.0655326224929379
13.7615	0.0659087040443094
13.7625	0.0662847855956809
13.7635	0.0666608671470524
13.7645	0.0670369486984239
13.7655	0.0674130302497954
13.7665	0.0677891118011670
13.7675	0.0681651933525385
13.7685	0.0685412749039100
13.7695	0.0689173564552815
13.7705	0.0692934380066530
13.7715	0.0696695195580245
13.7725	0.0700456011093960
13.7735	0.0704216826607675
13.7745	0.0707977642121390
13.7755	0.0711738457635105
13.7765	0.0715499273148820
13.7775	0.0719260088662535
13.7785	0.0723020904176250
13.7795	0.0726781719689965
13.7805	0.0730542535203680
13.7815	0.0734303350717395
13.7825	0.0738064166231110
13.7835	0.0741824981744825
13.7845	0.0745585797258540
13.7855	0.0749346612772255
13.7865	0.0753107428285970
13.7875	0.0756868243799685
13.7885	0.0760629059313400
13.7895	0.0764389874827115
13.7905	0.0768150690340830
13.7915	0.0771911505854545
13.7925	0.0775672321368261
13.7935	0.0779433136881976
13.7945	0.0783193952395691
13.7955	0.0786954767909406
13.7965	0.0790715583423121
13.7975	0.0794476398936836
13.7985	0.0798237214450551
13.7995	0.0801998029964266
13.8005	0.0805758845477981
13.8015	0.0809519660991696
13.8025	0.0813280476505411
13.8035	0.0817041292019126
13.8045	0.0820802107532841
13.8055	0.0824562923046556
13.8065	0.0828323738560271
13.8075	0.0832084554073986
13.8085	0.0835845369587701
13.8095	0.0839606185101416
13.8105	0.0843367000615131
13.8115	0.0847127816128846
13.8125	0.0850888631642561
13.8135	0.0854649447156276
13.8145	0.0858410262669991
13.8155	0.0862171078183707
13.8165	0.0865931893697422
13.8175	0.0869692709211136
13.8185	0.0873453524724851
13.8195	0.0877214340238567
13.8205	0.0880975155752282
13.8215	0.0884735971265997
13.8225	0.0888496786779712
13.8235	0.0892257602293427
13.8245	0.0896018417807142
13.8255	0.0899779233320857
13.8265	0.0903540048834572
13.8275	0.0907300864348287
13.8285	0.0911061679862002
13.8295	0.0914822495375717
13.8305	0.0918583310889432
13.8315	0.0922344126403147
13.8325	0.0926104941916862
13.8335	0.0929865757430577
13.8345	0.0933626572944292
13.8355	0.0937387388458007
13.8365	0.0941148203971722
13.8375	0.0944909019485437
13.8385	0.0948669834999152
13.8395	0.0952430650512867
13.8405	0.0956191466026582
13.8415	0.0959952281540297
13.8425	0.0963713097054013
13.8435	0.0967473912567728
13.8445	0.0971234728081443
13.8455	0.0974995543595158
13.8465	0.0978756359108873
13.8475	0.0982517174622588
13.8485	0.0986277990136303
13.8495	0.0990038805650018
13.8505	0.0993799621163733
13.8515	0.0997560436677448
13.8525	0.1001321252191163
13.8535	0.1005082067704878
13.8545	0.1008842883218593
13.8555	0.1012603698732308
13.8565	0.1016364514246023
13.8575	0.1020125329759738
13.8585	0.1023886145273453
13.8595	0.1027646960787168
13.8605	0.1031407776300883
13.8615	0.1042462637963948
13.8625	0.1054007788529948
13.8635	0.1065552939095949
13.8645	0.1077098089661949
13.8655	0.1088643240227950
13.8665	0.1100188390793950
13.8675	0.1111733541359951
13.8685	0.1123278691925952
13.8695	0.1134823842491952
13.8705	0.1146368993057953
13.8715	0.1157914143623953
13.8725	0.1169459294189954
13.8735	0.1181004444755955
13.8745	0.1192549595321955
13.8755	0.1204094745887956
13.8765	0.1215639896453956
13.8775	0.1227185047019957
13.8785	0.1238730197585957
13.8795	0.1250275348151958
13.8805	0.1261820498717958
13.8815	0.1273365649283959
13.8825	0.1284910799849960
13.8835	0.1296455950415960
13.8845	0.1308001100981961
13.8855	0.1319546251547961
13.8865	0.1331091402113962
13.8875	0.1342636552679963
13.8885	0.1354181703245963
13.8895	0.1365726853811964
13.8905	0.1377272004377964
13.8915	0.1388817154943965
13.8925	0.1400362305509965
13.8935	0.1411907456075966
13.8945	0.1423452606641967
13.8955	0.1434997757207967
13.8965	0.1446542907773968
13.8975	0.1458088058339968
13.8985	0.1469633208905969
13.8995	0.1481178359471970
13.9005	0.1492723510037970
13.9015	0.1504268660603971
13.9025	0.1515813811169971
13.9035	0.1527358961735972
13.9045	0.1538904112301973
13.9055	0.1550449262867973
13.9065	0.1561994413433974
13.9075	0.1573539563999974
13.9085	0.1585084714565975
13.9095	0.1596629865131975
13.9105	0.1608175015697976
13.9115	0.1619720166263977
13.9125	0.1631265316829977
13.9135	0.1642810467395978
13.9145	0.1654355617961978
13.9155	0.1665900768527979
13.9165	0.1677445919093979
13.9175	0.1688991069659980
13.9185	0.1700536220225980
13.9195	0.1712081370791981
13.9205	0.1723626521357982
13.9215	0.1735171671923982
13.9225	0.1746716822489983
13.9235	0.1758261973055983
13.9245	0.1769807123621984
13.9255	0.1781352274187984
13.9265	0.1792897424753985
13.9275	0.1804442575319986
13.9285	0.1815987725885986
13.9295	0.1827532876451987
13.9305	0.1839078027017987
13.9315	0.1850623177583988
13.9325	0.1862168328149988
13.9335	0.1873713478715989
13.9345	0.1885258629281990
13.9355	0.1896803779847990
13.9365	0.1908348930413991
13.9375	0.1919894080979991
13.9385	0.1931439231545992
13.9395	0.1942984382111993
13.9405	0.1954529532677993
13.9415	0.1966074683243994
13.9425	0.1977619833809994
13.9435	0.1989164984375995
13.9445	0.2000710134941995
13.9455	0.2012255285507996
13.9465	0.2023800436073997
13.9475	0.2035345586639997
13.9485	0.2046890737205998
13.9495	0.2058435887771998
13.9505	0.2069981038337999
13.9515	0.2081526188904000
13.9525	0.2093071339470000
13.9535	0.2104616490036001
13.9545	0.2116161640602001
13.9555	0.2127706791168002
13.9565	0.2139251941734003
13.9575	0.2150797092300003
13.9585	0.2162342242866004
13.9595	0.2173887393432004
13.9605	0.2185432543998005
13.9615	0.2196977694564005
13.9625	0.2208522845130006
13.9635	0.2220067995696006
13.9645	0.2231613146262007
13.9655	0.2243158296828008
13.9665	0.2254703447394008
13.9675	0.2266248597960009
13.9685	0.2277793748526009
13.9695	0.2289338899092010
13.9705	0.2300884049658010
13.9715	0.2312429200224011
13.9725	0.2323974350790012
13.9735	0.2335519501356012
13.9745	0.2347064651922013
13.9755	0.2358609802488013
13.9765	0.2370154953054014
13.9775	0.2381700103620015
13.9785	0.2393245254186015
13.9795	0.2404790404752016
13.9805	0.2416335555318016
13.9815	0.2427880705884017
13.9825	0.2439425856450017
13.9835	0.2450971007016018
13.9845	0.2462516157582019
13.9855	0.2474061308148019
13.9865	0.2485606458714020
13.9875	0.2497151609280020
13.9885	0.2508696759846021
13.9895	0.2520241910412022
13.9905	0.2531787060978022
13.9915	0.2543332211544023
13.9925	0.2554877362110023
13.9935	0.2566422512676024
13.9945	0.2577967663242025
13.9955	0.2589512813808025
13.9965	0.2601057964374026
13.9975	0.2612603114940026
13.9985	0.2624148265506027
13.9995	0.2635693416072027
14.0005	0.2647238566638028
14.0015	0.2658783717204029
14.0025	0.2670328867770029
14.0035	0.2681874018336030
14.0045	0.2693419168902030
14.0055	0.2704964319468031
14.0065	0.2716509470034031
14.0075	0.2728054620600032
14.0085	0.2739599771166032
14.0095	0.3018956870281106
14.0105	0.3329901650016178
14.0115	0.3640846429751250
14.0125	0.3951791209486322
14.0135	0.4262735989221394
14.0145	0.4573680768956466
14.0155	0.4884625548691538
14.0165	0.5195570328426611
14.0175	0.5506515108161683
14.0185	0.5817459887896754
14.0195	0.6128404667631826
14.0205	0.6439349447366898
14.0215	0.6750294227101971
14.0225	0.7061239006837042
14.0235	0.7372183786572115
14.0245	0.7683128566307187
14.0255	0.7994073346042259
14.0265	0.8305018125777330
14.0275	0.8615962905512403
14.0285	0.8926907685247475
14.0295	0.9237852464982547
14.0305	0.9548797244717618
14.0315	0.9859742024452691
14.0325	1.0170686804187763
14.0335	1.0481631583922835
14.0345	1.0792576363657909
14.0355	1.1103521143392978
14.0365	1.1414465923128052
14.0375	1.1725410702863122
14.0385	1.2036355482598196
14.0395	1.2347300262333267
14.0405	1.2658245042068339
14.0415	1.2969189821803411
14.0425	1.3280134601538482
14.0435	1.3591079381273556
14.0445	1.3902024161008628
14.0455	1.4212968940743700
14.0465	1.4523913720478772
14.0475	1.4834858500213843
14.0485	1.5145803279948915
14.0495	1.5456748059683987
14.0505	1.5767692839419059
14.0515	1.6078637619154132
14.0525	1.6389582398889204
14.0535	1.6700527178624276
14.0545	1.7011471958359348
14.0555	1.7322416738094419
14.0565	1.7633361517829491
14.0575	1.7944306297564563
14.0585	1.8255251077299637
14.0595	1.8566195857034709
14.0605	1.8877140636769780
14.0615	1.9188085416504852
14.0625	1.9499030196239924
14.0635	1.9809974975974995
14.0645	2.0120919755710069
14.0655	2.0431864535445143
14.0665	2.0742809315180213
14.0675	2.1053754094915282
14.0685	2.1364698874650356
14.0695	2.1675643654385430
14.0705	2.1986588434120500
14.0715	2.2297533213855569
14.0725	2.2608477993590643
14.0735	2.2919422773325717
14.0745	2.3230367553060791
14.0755	2.3541312332795865
14.0765	2.3852257112530930
14.0775	2.4163201892266004
14.0785	2.4474146672001078
14.0795	2.4785091451736152
14.0805	2.5096036231471217
14.0815	2.5406981011206291
14.0825	2.5717925790941365
14.0835	2.6028870570676439
14.0845	2.6339815350411513
14.0855	2.6650760130146578
14.0865	2.6961704909881652
14.0875	2.7272649689616726
14.0885	2.7583594469351800
14.0895	2.7894539249086865
14.0905	2.8205484028821939
14.0915	2.8516428808557013
14.0925	2.8827373588292087
14.0935	2.9138318368027161
14.0945	2.9449263147762226
14.0955	2.9760207927497300
14.0965	3.0071152707232374
14.0975	3.0382097486967448
14.0985	3.0693042266702522
14.0995	3.1003987046437587
14.1005	3.1314931826172661
14.1015	3.1625876605907735
14.1025	3.1936821385642808
14.1035	3.2247766165377874
14.1045	3.2558710945112947
14.1055	3.2869655724848021
14.1065	3.3180600504583095
14.1075	3.3491545284318169
14.1085	3.3802490064053234
14.1095	3.4113434843788308
14.1105	3.4424379623523382
14.1115	3.4735324403258456
14.1125	3.5046269182993530
14.1135	3.5357213962728595
14.1145	3.5668158742463669
14.1155	3.5979103522198743
14.1165	3.6290048301933817
14.1175	3.6600993081668882
14.1185	3.6911937861403956
14.1195	3.7222882641139030
14.1205	3.7533827420874104
14.1215	3.7844772200609178
14.1225	3.8155716980344243
14.1235	3.8466661760079317
14.1245	3.8777606539814391
14.1255	3.9088551319549465
14.1265	3.9399496099284539
14.1275	3.9710440879019604
14.1285	4.0021385658754678
14.1295	4.0332330438489752
14.1305	4.0643275218224826
14.1315	4.0954219997959891
14.1325	4.1265164777694965
14.1335	4.1576109557430039
14.1345	4.1887054337165113
14.1355	4.2197999116900187
14.1365	4.2508943896635252
14.1375	4.2819888676370326
14.1385	4.3130833456105400
14.1395	4.3441778235840474
14.1405	4.3752723015575548
14.1415	4.4063667795310621
14.1425	4.4374612575045687
14.1435	4.4685557354780761
14.1445	4.4996502134515834
14.1455	4.5307446914250908
14.1465	4.5618391693985973
14.1475	4.5929336473721047
14.1485	4.6240281253456121
14.1495	4.6551226033191195
14.1505	4.6862170812926269
14.1515	4.7173115592661334
14.1525	4.7484060372396408
14.1535	4.7795005152131482
14.1545	4.8105949931866556
14.1555	4.8416894711601630
14.1565	4.8727839491336695
14.1575	4.8561133423658687
14.1585	4.8311440161297723
14.1595	4.8061746898936759
14.1605	4.7812053636575804
14.1615	4.7562360374214840
14.1625	4.7312667111853886
14.1635	4.7062973849492922
14.1645	4.6813280587131967
14.1655	4.6563587324771003
14.1665	4.6313894062410048
14.1675	4.6064200800049084
14.1685	4.5814507537688129
14.1695	4.5564814275327166
14.1705	4.5315121012966211
14.1715	4.5065427750605247
14.1725	4.4815734488244292
14.1735	4.4566041225883328
14.1745	4.4316347963522364
14.1755	4.4066654701161410
14.1765	4.3816961438800446
14.1775	4.3567268176439491
14.1785	4.3317574914078527
14.1795	4.3067881651717572
14.1805	4.2818188389356608
14.1815	4.2568495126995654
14.1825	4.2318801864634690
14.1835	4.2069108602273735
14.1845	4.1819415339912771
14.1855	4.1569722077551816
14.1865	4.1320028815190852
14.1875	4.1070335552829897
14.1885	4.0820642290468934
14.1895	4.0570949028107979
14.1905	4.0321255765747015
14.1915	4.0071562503386051
14.1925	3.9821869241025096
14.1935	3.9572175978664137
14.1945	3.9322482716303178
14.1955	3.9072789453942218
14.1965	3.8823096191581259
14.1975	3.8573402929220295
14.1985	3.8323709666859340
14.1995	3.8074016404498376
14.2005	3.7824323142137422
14.2015	3.7574629879776458
14.2025	3.7324936617415503
14.2035	3.7075243355054539
14.2045	3.6825550092693580
14.2055	3.6575856830332620
14.2065	3.6326163567971661
14.2075	3.6076470305610702
14.2085	3.5826777043249742
14.2095	3.5577083780888783
14.2105	3.5327390518527824
14.2115	3.5077697256166864
14.2125	3.4828003993805901
14.2135	3.4578310731444946
14.2145	3.4328617469083982
14.2155	3.4078924206723027
14.2165	3.3829230944362063
14.2175	3.3579537682001108
14.2185	3.3329844419640144
14.2195	3.3080151157279185
14.2205	3.2830457894918226
14.2215	3.2580764632557266
14.2225	3.2331071370196307
14.2235	3.2081378107835348
14.2245	3.1831684845474388
14.2255	3.1581991583113429
14.2265	3.1332298320752470
14.2275	3.1082605058391506
14.2285	3.0832911796030551
14.2295	3.0583218533669587
14.2305	3.0333525271308632
14.2315	3.0083832008947669
14.2325	2.9834138746586714
14.2335	2.9584445484225750
14.2345	2.9334752221864795
14.2355	2.9085058959503831
14.2365	2.8835365697142872
14.2375	2.8585672434781912
14.2385	2.8335979172420953
14.2395	2.8086285910059994
14.2405	2.7836592647699034
14.2415	2.7586899385338075
14.2425	2.7337206122977116
14.2435	2.7087512860616156
14.2445	2.6837819598255197
14.2455	2.6588126335894238
14.2465	2.6338433073533278
14.2475	2.6088739811172315
14.2485	2.5839046548811355
14.2495	2.5589353286450396
14.2505	2.5339660024089437
14.2515	2.5089966761728477
14.2525	2.4840273499367518
14.2535	2.4590580237006558
14.2545	2.4340886974645599
14.2555	2.4091193712284640
14.2565	2.3841500449923680
14.2575	2.3591807187562721
14.2585	2.3342113925201762
14.2595	2.3092420662840802
14.2605	2.2842727400479843
14.2615	2.2593034138118884
14.2625	2.2343340875757924
14.2635	2.2093647613396961
14.2645	2.1843954351036001
14.2655	2.1594261088675042
14.2665	2.1344567826314083
14.2675	2.1094874563953123
14.2685	2.0845181301592164
14.2695	2.0595488039231205
14.2705	2.0345794776870245
14.2715	2.0096101514509286
14.2725	1.9846408252148326
14.2735	1.9596714989787367
14.2745	1.9347021727426408
14.2755	1.9097328465065448
14.2765	1.8847635202704489
14.2775	1.8597941940343530
14.2785	1.8348248677982570
14.2795	1.8098555415621607
14.2805	1.7848862153260647
14.2815	1.7599168890899688
14.2825	1.7349475628538729
14.2835	1.7099782366177769
14.2845	1.6850089103816810
14.2855	1.6600395841455851
14.2865	1.6350702579094891
14.2875	1.6101009316733932
14.2885	1.5851316054372973
14.2895	1.5601622792012013
14.2905	1.5351929529651054
14.2915	1.5102236267290094
14.2925	1.4852543004929135
14.2935	1.4602849742568176
14.2945	1.4353156480207216
14.2955	1.4103463217846253
14.2965	1.3853769955485293
14.2975	1.3604076693124334
14.2985	1.3354383430763375
14.2995	1.3104690168402415
14.3005	1.2854996906041456
14.3015	1.2605303643680497
14.3025	1.2355610381319537
14.3035	1.2105917118958578
14.3045	1.1856223856597619
14.3055	1.1745647049911503
14.3065	1.1667817525916275
14.3075	1.1589988001921046
14.3085	1.1512158477925818
14.3095	1.1434328953930590
14.3105	1.1356499429935363
14.3115	1.1278669905940135
14.3125	1.1200840381944908
14.3135	1.1123010857949680
14.3145	1.1045181333954452
14.3155	1.0967351809959225
14.3165	1.0889522285963997
14.3175	1.0811692761968770
14.3185	1.0733863237973540
14.3195	1.0656033713978312
14.3205	1.0578204189983085
14.3215	1.0500374665987857
14.3225	1.0422545141992630
14.3235	1.0344715617997402
14.3245	1.0266886094002174
14.3255	1.0189056570006947
14.3265	1.0111227046011719
14.3275	1.0033397522016489
14.3285	0.9955567998021263
14.3295	0.9877738474026034
14.3305	0.9799908950030807
14.3315	0.9722079426035579
14.3325	0.9644249902040352
14.3335	0.9566420378045124
14.3345	0.9488590854049896
14.3355	0.9410761330054668
14.3365	0.9332931806059440
14.3375	0.9255102282064213
14.3385	0.9177272758068984
14.3395	0.9099443234073756
14.3405	0.9021613710078529
14.3415	0.8943784186083301
14.3425	0.8865954662088074
14.3435	0.8788125138092846
14.3445	0.8710295614097618
14.3455	0.8632466090102391
14.3465	0.8554636566107162
14.3475	0.8476807042111935
14.3485	0.8398977518116706
14.3495	0.8321147994121478
14.3505	0.8243318470126251
14.3515	0.8165488946131023
14.3525	0.8087659422135796
14.3535	0.8009829898140568
14.3545	0.7932000374145340
14.3555	0.7854170850150112
14.3565	0.7776341326154884
14.3575	0.7698511802159657
14.3585	0.7620682278164428
14.3595	0.7542852754169200
14.3605	0.7465023230173973
14.3615	0.7387193706178745
14.3625	0.7309364182183518
14.3635	0.7231534658188290
14.3645	0.7153705134193062
14.3655	0.7075875610197834
14.3665	0.6998046086202606
14.3675	0.6920216562207379
14.3685	0.6842387038212150
14.3695	0.6764557514216922
14.3705	0.6686727990221695
14.3715	0.6608898466226467
14.3725	0.6531068942231240
14.3735	0.6453239418236012
14.3745	0.6375409894240783
14.3755	0.6297580370245556
14.3765	0.6219750846250328
14.3775	0.6141921322255101
14.3785	0.6064091798259873
14.3795	0.5986262274264644
14.3805	0.5908432750269417
14.3815	0.5830603226274189
14.3825	0.5752773702278962
14.3835	0.5674944178283734
14.3845	0.5597114654288505
14.3855	0.5519285130293278
14.3865	0.5441455606298050
14.3875	0.5363626082302823
14.3885	0.5285796558307595
14.3895	0.5207967034312366
14.3905	0.5130137510317139
14.3915	0.5052307986321911
14.3925	0.4974478462326684
14.3935	0.4896648938331455
14.3945	0.4818819414336227
14.3955	0.4740989890341000
14.3965	0.4663160366345772
14.3975	0.4585330842350545
14.3985	0.4507501318355316
14.3995	0.4429671794360088
14.4005	0.4351842270364861
14.4015	0.4274012746369633
14.4025	0.4196183222374406
14.4035	0.4118353698379177
14.4045	0.4040524174383949
14.4055	0.3962694650388722
14.4065	0.3884865126393494
14.4075	0.3807035602398267
14.4085	0.3729206078403038
14.4095	0.3651376554407810
14.4105	0.3573547030412583
14.4115	0.3495717506417355
14.4125	0.3417887982422128
14.4135	0.3340058458426899
14.4145	0.3262228934431671
14.4155	0.3184399410436444
14.4165	0.3106569886441216
14.4175	0.3028740362445989
14.4185	0.2950910838450760
14.4195	0.2873081314455532
14.4205	0.2795251790460305
14.4215	0.2717422266465077
14.4225	0.2639592742469850
14.4235	0.2561763218474621
14.4245	0.2483933694479393
14.4255	0.2406104170484166
14.4265	0.2328274646488938
14.4275	0.2250445122493711
14.4285	0.2172615598498482
14.4295	0.2094786074503254
14.4305	0.2016956550508027
14.4315	0.1939127026512799
14.4325	0.1861297502517572
14.4335	0.1783467978522344
14.4345	0.1705638454527116
14.4355	0.1627808930531887
14.4365	0.1549979406536659
14.4375	0.1472149882541431
14.4385	0.1394320358546204
14.4395	0.1316490834550976
14.4405	0.1238661310555749
14.4415	0.1160831786560521
14.4425	0.1083002262565294
14.4435	0.1005172738570066
14.4445	0.0927343214574838
14.4455	0.0849513690579609
14.4465	0.0771684166584381
14.4475	0.0693854642589153
14.4485	0.0616025118593926
14.4495	0.0538195594598698
14.4505	0.0460366070603471
14.4515	0.0382536546608243
14.4525	0.0304707022613016
