# b	pdf
3.9697	0.0002752888970595
3.9707	0.0002752916758053
3.9717	0.0002752944545511
3.9727	0.0002752972332969
3.9737	0.0002753000120427
3.9747	0.0002753027907886
3.9757	0.0002753055695344
3.9767	0.0002753083482802
3.9777	0.0002753111270260
3.9787	0.0002753139057718
3.9797	0.0002753166845176
3.9807	0.0002753194632635
3.9817	0.0002753222420093
3.9827	0.0002753250207551
3.9837	0.0002753277995009
3.9847	0.0002753305782467
3.9857	0.0002753333569925
3.9867	0.0002753361357384
3.9877	0.0002753389144842
3.9887	0.0002753416932300
3.9897	0.0002753444719758
3.9907	0.0002753472507216
3.9917	0.0002753500294674
3.9927	0.0002753528082133
3.9937	0.0002753555869591
3.9947	0.0002753583657049
3.9957	0.0002753611444507
3.9967	0.0002753639231965
3.9977	0.0002753667019424
3.9987	0.0002753694806882
3.9997	0.0002753722594340
4.0007	0.0002753750381798
4.0017	0.0002753778169256
4.0027	0.0002753805956714
4.0037	0.0002753833744173
4.0047	0.0002753861531631
4.0057	0.0002753889319089
4.0067	0.0002753917106547
4.0077	0.0002753944894005
4.0087	0.0002753972681463
4.0097	0.0002754000468922
4.0107	0.0002754028256380
4.0117	0.0002754056043838
4.0127	0.0002754083831296
4.0137	0.0002754111618754
4.0147	0.0002754139406213
4.0157	0.0002754167193671
4.0167	0.0002754194981129
4.0177	0.0002754222768587
4.0187	0.0002754250556045
4.0197	0.0002754278343503
4.0207	0.0002754306130962
4.0217	0.0002754333918420
4.0227	0.0002754361705878
4.0237	0.0002754389493336
4.0247	0.0002754417280794
4.0257	0.0002754445068252
4.0267	0.0002754472855711
4.0277	0.0002754500643169
4.0287	0.0002754528430627
4.0297	0.0002754556218085
4.0307	0.0002754584005543
4.0317	0.0002754611793002
4.0327	0.0002754639580460
4.0337	0.0002754667367918
4.0347	0.0002754695155376
4.0357	0.0002754722942834
4.0367	0.0002754750730292
4.0377	0.0002754778517751
4.0387	0.0002754806305209
4.0397	0.0002754834092667
4.0407	0.0002754861880125
4.0417	0.0002754889667583
4.0427	0.0002754917455041
4.0437	0.0002754945242500
4.0447	0.0002754973029958
4.0457	0.0002755000817416
4.0467	0.0002755028604874
4.0477	0.0002755056392332
4.0487	0.0002755084179791
4.0497	0.0002755111967249
4.0507	0.0002755139754707
4.0517	0.0002755167542165
4.0527	0.0002755195329623
4.0537	0.0002755223117081
4.0547	0.0002755250904540
4.0557	0.0002755278691998
4.0567	0.0002755306479456
4.0577	0.0002755334266914
4.0587	0.0002755362054372
4.0597	0.0002755389841830
4.0607	0.0002755417629289
4.0617	0.0002755445416747
4.0627	0.0002755473204205
4.0637	0.0002755500991663
4.0647	0.0002755528779121
4.0657	0.0002755556566580
4.0667	0.0002755584354038
4.0677	0.0002755612141496
4.0687	0.0002755639928954
4.0697	0.0002755667716412
4.0707	0.0002755695503870
4.0717	0.0002755723291329
4.0727	0.0002755751078787
4.0737	0.0002755778866245
4.0747	0.0002755806653703
4.0757	0.0002755834441161
4.0767	0.0002755862228619
4.0777	0.0002755890016078
4.0787	0.0002755917803536
4.0797	0.0002755945590994
4.0807	0.0002755973378452
4.0817	0.0002756001165910
4.0827	0.0002756028953369
4.0837	0.0002756056740827
4.0847	0.0002756084528285
4.0857	0.0002756112315743
4.0867	0.0002756140103201
4.0877	0.0002756167890659
4.0887	0.0002756195678118
4.0897	0.0002756223465576
4.0907	0.0002756251253034
4.0917	0.0002756279040492
4.0927	0.0002756306827950
4.0937	0.0002756334615408
4.0947	0.0002756362402867
4.0957	0.0002756390190325
4.0967	0.0002756417977783
4.0977	0.0002756445765241
4.0987	0.0002756473552699
4.0997	0.0002756501340158
4.1007	0.0002756529127616
4.1017	0.0002756556915074
4.1027	0.0002756584702532
4.1037	0.0002756612489990
4.1047	0.0002756640277448
4.1057	0.0002756668064907
4.1067	0.0002756695852365
4.1077	0.0002756723639823
4.1087	0.0002756751427281
4.1097	0.0002756779214739
4.1107	0.0002756807002197
4.1117	0.0002756834789656
4.1127	0.0002756862577114
4.1137	0.0002756890364572
4.1147	0.0002756918152030
4.1157	0.0002756945939488
4.1167	0.0002756973726947
4.1177	0.0002757001514405
4.1187	0.0002757029301863
4.1197	0.0002757057089321
4.1207	0.0002757084876779
4.1217	0.0002757112664237
4.1227	0.0002757140451696
4.1237	0.0002757168239154
4.1247	0.0002757196026612
4.1257	0.0002757223814070
4.1267	0.0002757251601528
4.1277	0.0002757279388986
4.1287	0.0002757307176445
4.1297	0.0002757334963903
4.1307	0.0002757362751361
4.1317	0.0002757390538819
4.1327	0.0002757418326277
4.1337	0.0002757446113736
4.1347	0.0002757473901194
4.1357	0.0002757501688652
4.1367	0.0002757529476110
4.1377	0.0002757557263568
4.1387	0.0002757585051026
4.1397	0.0002757612838485
4.1407	0.0002757640625943
4.1417	0.0002757668413401
4.1427	0.0002757696200859
4.1437	0.0002757723988317
4.1447	0.0002757751775775
4.1457	0.0002757779563234
4.1467	0.0002757807350692
4.1477	0.0002757835138150
4.1487	0.0002757862925608
4.1497	0.0002757890713066
4.1507	0.0002757918500525
4.1517	0.0002757946287983
4.1527	0.0002757974075441
4.1537	0.0002758001862899
4.1547	0.0002758029650357
4.1557	0.0002758057437815
4.1567	0.0002758085225274
4.1577	0.0002758113012732
4.1587	0.0002758140800190
4.1597	0.0002758168587648
4.1607	0.0002758196375106
4.1617	0.0002758224162564
4.1627	0.0002758251950023
4.1637	0.0002758279737481
4.1647	0.0002758307524939
4.1657	0.0002758335312397
4.1667	0.0002758363099855
4.1677	0.0002758390887314
4.1687	0.0002758418674772
4.1697	0.0002758446462230
4.1707	0.0002758474249688
4.1717	0.0002758502037146
4.1727	0.0002758529824604
4.1737	0.0002758557612063
4.1747	0.0002758585399521
4.1757	0.0002758613186979
4.1767	0.0002758640974437
4.1777	0.0002758668761895
4.1787	0.0002758696549353
4.1797	0.0002758724336812
4.1807	0.0002758752124270
4.1817	0.0002758779911728
4.1827	0.0002758807699186
4.1837	0.0002758835486644
4.1847	0.0002758863274103
4.1857	0.0002758891061561
4.1867	0.0002758918849019
4.1877	0.0002758946636477
4.1887	0.0002758974423935
4.1897	0.0002759002211393
4.1907	0.0002759029998852
4.1917	0.0002759057786310
4.1927	0.0002759085573768
4.1937	0.0002759113361226
4.1947	0.0002759141148684
4.1957	0.0002759168936142
4.1967	0.0002759196723601
4.1977	0.0002759224511059
4.1987	0.0002759252298517
4.1997	0.0002759280085975
4.2007	0.0002759307873433
4.2017	0.0002759335660892
4.2027	0.0002759363448350
4.2037	0.0002759391235808
4.2047	0.0002759419023266
4.2057	0.0002759446810724
4.2067	0.0002759474598182
4.2077	0.0002759502385641
4.2087	0.0002759530173099
4.2097	0.0002759557960557
4.2107	0.0002759585748015
4.2117	0.0002759613535473
4.2127	0.0002759641322931
4.2137	0.0002759669110390
4.2147	0.0002759696897848
4.2157	0.0002759724685306
4.2167	0.0002759752472764
4.2177	0.0002759780260222
4.2187	0.0002759808047680
4.2197	0.0002759835835139
4.2207	0.0002759863622597
4.2217	0.0002759891410055
4.2227	0.0002759919197513
4.2237	0.0002759946984971
4.2247	0.0002759974772430
4.2257	0.0002760002559888
4.2267	0.0002760030347346
4.2277	0.0002760058134804
4.2287	0.0002760085922262
4.2297	0.0002760113709720
4.2307	0.0002760141497179
4.2317	0.0002760169284637
4.2327	0.0002760197072095
4.2337	0.0002760224859553
4.2347	0.0002760252647011
4.2357	0.0002760280434469
4.2367	0.0002760308221928
4.2377	0.0002760336009386
4.2387	0.0002760363796844
4.2397	0.0002760391584302
4.2407	0.0002760419371760
4.2417	0.0002760447159219
4.2427	0.0002760474946677
4.2437	0.0002760502734135
4.2447	0.0002760530521593
4.2457	0.0002760558309051
4.2467	0.0002760586096509
4.2477	0.0002760613883968
4.2487	0.0002760641671426
4.2497	0.0002760669458884
4.2507	0.0002760697246342
4.2517	0.0002760725033800
4.2527	0.0002760752821258
4.2537	0.0002760780608717
4.2547	0.0002760808396175
4.2557	0.0002760836183633
4.2567	0.0002760863971091
4.2577	0.0002760891758549
4.2587	0.0002760919546008
4.2597	0.0002760947333466
4.2607	0.0002760975120924
4.2617	0.0002761002908382
4.2627	0.0002761030695840
4.2637	0.0002761058483298
4.2647	0.0002761086270757
4.2657	0.0002761114058215
4.2667	0.0002761141845673
4.2677	0.0002761169633131
4.2687	0.0002761197420589
4.2697	0.0002761225208047
4.2707	0.0002761252995506
4.2717	0.0002761280782964
4.2727	0.0002761308570422
4.2737	0.0002761336357880
4.2747	0.0002761364145338
4.2757	0.0002761391932797
4.2767	0.0002761419720255
4.2777	0.0002761447507713
4.2787	0.0002761475295171
4.2797	0.0002761503082629
4.2807	0.0002761530870087
4.2817	0.0002761558657546
4.2827	0.0002761586445004
4.2837	0.0002761614232462
4.2847	0.0002761642019920
4.2857	0.0002761669807378
4.2867	0.0002761697594836
4.2877	0.0002761725382295
4.2887	0.0002761753169753
4.2897	0.0002761780957211
4.2907	0.0002761808744669
4.2917	0.0002761836532127
4.2927	0.0002761864319586
4.2937	0.0002761892107044
4.2947	0.0002761919894502
4.2957	0.0002761947681960
4.2967	0.0002761975469418
4.2977	0.0002762003256876
4.2987	0.0002762031044335
4.2997	0.0002762058831793
4.3007	0.0002762086619251
4.3017	0.0002762114406709
4.3027	0.0002762142194167
4.3037	0.0002762169981625
4.3047	0.0002762197769084
4.3057	0.0002762225556542
4.3067	0.0002762253344000
4.3077	0.0002762281131458
4.3087	0.0002762308918916
4.3097	0.0002762336706375
4.3107	0.0002762364493833
4.3117	0.0002762392281291
4.3127	0.0002762420068749
4.3137	0.0002762447856207
4.3147	0.0002762475643665
4.3157	0.0002762503431124
4.3167	0.0002762531218582
4.3177	0.0002762559006040
4.3187	0.0002762586793498
4.3197	0.0002762614580956
4.3207	0.0002762642368414
4.3217	0.0002762670155873
4.3227	0.0002762697943331
4.3237	0.0002762725730789
4.3247	0.0002762753518247
4.3257	0.0002762781305705
4.3267	0.0002762809093164
4.3277	0.0002762836880622
4.3287	0.0002762864668080
4.3297	0.0002762892455538
4.3307	0.0002762920242996
4.3317	0.0002762948030454
4.3327	0.0002762975817913
4.3337	0.0002763003605371
4.3347	0.0002763031392829
4.3357	0.0002763059180287
4.3367	0.0002763086967745
4.3377	0.0002763114755203
4.3387	0.0002763142542662
4.3397	0.0002763170330120
4.3407	0.0002763198117578
4.3417	0.0002763225905036
4.3427	0.0002763253692494
4.3437	0.0002763281479953
4.3447	0.0002763309267411
4.3457	0.0002763337054869
4.3467	0.0002763364842327
4.3477	0.0002763392629785
4.3487	0.0002763420417243
4.3497	0.0002763448204702
4.3507	0.0002763475992160
4.3517	0.0002763503779618
4.3527	0.0002763531567076
4.3537	0.0002763559354534
4.3547	0.0002763587141992
4.3557	0.0002763614929451
4.3567	0.0002763642716909
4.3577	0.0002763670504367
4.3587	0.0002763698291825
4.3597	0.0002763726079283
4.3607	0.0002763753866742
4.3617	0.0002763781654200
4.3627	0.0002763809441658
4.3637	0.0002763837229116
4.3647	0.0002763865016574
4.3657	0.0002763892804032
4.3667	0.0002763920591491
4.3677	0.0002763948378949
4.3687	0.0002763976166407
4.3697	0.0002764003953865
4.3707	0.0002764031741323
4.3717	0.0002764059528781
4.3727	0.0002764087316240
4.3737	0.0002764115103698
4.3747	0.0002764142891156
4.3757	0.0002764170678614
4.3767	0.0002764198466072
4.3777	0.0002764226253531
4.3787	0.0002764254040989
4.3797	0.0002764281828447
4.3807	0.0002764309615905
4.3817	0.0002764337403363
4.3827	0.0002764365190821
4.3837	0.0002764392978280
4.3847	0.0002764420765738
4.3857	0.0002764448553196
4.3867	0.0002764476340654
4.3877	0.0002764504128112
4.3887	0.0002764531915570
4.3897	0.0002764559703029
4.3907	0.0002764587490487
4.3917	0.0002764615277945
4.3927	0.0002764643065403
4.3937	0.0002764670852861
4.3947	0.0002764698640320
4.3957	0.0002764726427778
4.3967	0.0002764754215236
4.3977	0.0002764782002694
4.3987	0.0002764809790152
4.3997	0.0002764837577610
4.4007	0.0002764865365069
4.4017	0.0002764893152527
4.4027	0.0002764920939985
4.4037	0.0002764948727443
4.4047	0.0002764976514901
4.4057	0.0002765004302359
4.4067	0.0002765032089818
4.4077	0.0002765059877276
4.4087	0.0002765087664734
4.4097	0.0002765115452192
4.4107	0.0002765143239650
4.4117	0.0002765171027109
4.4127	0.0002765198814567
4.4137	0.0002765226602025
4.4147	0.0002765254389483
4.4157	0.0002765282176941
4.4167	0.0002765309964399
4.4177	0.0002765337751858
4.4187	0.0002765365539316
4.4197	0.0002765393326774
4.4207	0.0002765421114232
4.4217	0.0002765448901690
4.4227	0.0002765476689148
4.4237	0.0002765504476607
4.4247	0.0002765532264065
4.4257	0.0002765560051523
4.4267	0.0002765587838981
4.4277	0.0002765615626439
4.4287	0.0002765643413898
4.4297	0.0002765671201356
4.4307	0.0002765698988814
4.4317	0.0002765726776272
4.4327	0.0002765754563730
4.4337	0.0002765782351188
4.4347	0.0002765810138647
4.4357	0.0002765837926105
4.4367	0.0002765865713563
4.4377	0.0002765893501021
4.4387	0.0002765921288479
4.4397	0.0002765949075937
4.4407	0.0002765976863396
4.4417	0.0002766004650854
4.4427	0.0002766032438312
4.4437	0.0002766060225770
4.4447	0.0002766088013228
4.4457	0.0002766115800686
4.4467	0.0002766143588145
4.4477	0.0002766171375603
4.4487	0.0002766199163061
4.4497	0.0002766226950519
4.4507	0.0002766254737977
4.4517	0.0002766282525436
4.4527	0.0002766310312894
4.4537	0.0002766338100352
4.4547	0.0002766365887810
4.4557	0.0002766393675268
4.4567	0.0002766421462726
4.4577	0.0002766449250185
4.4587	0.0002766477037643
4.4597	0.0002766504825101
4.4607	0.0002766532612559
4.4617	0.0002766560400017
4.4627	0.0002766588187475
4.4637	0.0002766615974934
4.4647	0.0002766643762392
4.4657	0.0002766671549850
4.4667	0.0002766699337308
4.4677	0.0002766727124766
4.4687	0.0002766754912225
4.4697	0.0002766782699683
4.4707	0.0002766810487141
4.4717	0.0002766838274599
4.4727	0.0002766866062057
4.4737	0.0002766893849515
4.4747	0.0002766921636974
4.4757	0.0002766949424432
4.4767	0.0002766977211890
4.4777	0.0002767004999348
4.4787	0.0002767032786806
4.4797	0.0002767060574264
4.4807	0.0002767088361723
4.4817	0.0002767116149181
4.4827	0.0002767143936639
4.4837	0.0002767171724097
4.4847	0.0002767199511555
4.4857	0.0002767227299014
4.4867	0.0002767255086472
4.4877	0.0002767282873930
4.4887	0.0002767310661388
4.4897	0.0002767338448846
4.4907	0.0002767366236304
4.4917	0.0002767394023763
4.4927	0.0002767421811221
4.4937	0.0002767449598679
4.4947	0.0002767477386137
4.4957	0.0002767505173595
4.4967	0.0002767532961053
4.4977	0.0002767560748512
4.4987	0.0002767588535970
4.4997	0.0002767616323428
4.5007	0.0002767644110886
4.5017	0.0002767671898344
4.5027	0.0002767699685803
4.5037	0.0002767727473261
4.5047	0.0002767755260719
4.5057	0.0002767783048177
4.5067	0.0002767810835635
4.5077	0.0002767838623093
4.5087	0.0002767866410552
4.5097	0.0002767894198010
4.5107	0.0002767921985468
4.5117	0.0002767949772926
4.5127	0.0002767977560384
4.5137	0.0002768005347842
4.5147	0.0002768033135301
4.5157	0.0002768060922759
4.5167	0.0002768088710217
4.5177	0.0002768116497675
4.5187	0.0002768144285133
4.5197	0.0002768172072592
4.5207	0.0002768199860050
4.5217	0.0002768227647508
4.5227	0.0002768255434966
4.5237	0.0002768283222424
4.5247	0.0002768311009882
4.5257	0.0002768338797341
4.5267	0.0002768366584799
4.5277	0.0002768394372257
4.5287	0.0002768422159715
4.5297	0.0002768449947173
4.5307	0.0002768477734631
4.5317	0.0002768505522090
4.5327	0.0002768533309548
4.5337	0.0002768561097006
4.5347	0.0002768588884464
4.5357	0.0002768616671922
4.5367	0.0002768644459381
4.5377	0.0002768672246839
4.5387	0.0002768700034297
4.5397	0.0002768727821755
4.5407	0.0002768755609213
4.5417	0.0002768783396671
4.5427	0.0002768811184130
4.5437	0.0002768838971588
4.5447	0.0002768866759046
4.5457	0.0002768894546504
4.5467	0.0002768922333962
4.5477	0.0002768950121420
4.5487	0.0002768977908879
4.5497	0.0002769005696337
4.5507	0.0002769033483795
4.5517	0.0002769061271253
4.5527	0.0002769089058711
4.5537	0.0002769116846170
4.5547	0.0002769144633628
4.5557	0.0002769172421086
4.5567	0.0002769200208544
4.5577	0.0002769227996002
4.5587	0.0002769255783460
4.5597	0.0002769283570919
4.5607	0.0002769311358377
4.5617	0.0002769339145835
4.5627	0.0002769366933293
4.5637	0.0002769394720751
4.5647	0.0002769422508209
4.5657	0.0002769450295668
4.5667	0.0002769478083126
4.5677	0.0002769505870584
4.5687	0.0002769533658042
4.5697	0.0002769561445500
4.5707	0.0002769589232959
4.5717	0.0002769617020417
4.5727	0.0002769644807875
4.5737	0.0002769672595333
4.5747	0.0002769700382791
4.5757	0.0002769728170249
4.5767	0.0002769755957708
4.5777	0.0002769783745166
4.5787	0.0002769811532624
4.5797	0.0002769839320082
4.5807	0.0002769867107540
4.5817	0.0002769894894998
4.5827	0.0002769922682457
4.5837	0.0002769950469915
4.5847	0.0002769978257373
4.5857	0.0002770006044831
4.5867	0.0002770033832289
4.5877	0.0002770061619748
4.5887	0.0002770089407206
4.5897	0.0002770117194664
4.5907	0.0002770144982122
4.5917	0.0002770172769580
4.5927	0.0002770200557038
4.5937	0.0002770228344497
4.5947	0.0002770256131955
4.5957	0.0002770283919413
4.5967	0.0002770311706871
4.5977	0.0002770339494329
4.5987	0.0002770367281787
4.5997	0.0002770395069246
4.6007	0.0002770422856704
4.6017	0.0002770450644162
4.6027	0.0002770478431620
4.6037	0.0002770506219078
4.6047	0.0002770534006537
4.6057	0.0002770561793995
4.6067	0.0002770589581453
4.6077	0.0002770617368911
4.6087	0.0002770645156369
4.6097	0.0002770672943827
4.6107	0.0002770700731286
4.6117	0.0002770728518744
4.6127	0.0002770756306202
4.6137	0.0002770784093660
4.6147	0.0002770811881118
4.6157	0.0002770839668576
4.6167	0.0002770867456035
4.6177	0.0002770895243493
4.6187	0.0002770923030951
4.6197	0.0002770950818409
4.6207	0.0002770978605867
4.6217	0.0002771006393326
4.6227	0.0002771034180784
4.6237	0.0002771061968242
4.6247	0.0002771089755700
4.6257	0.0002771117543158
4.6267	0.0002771145330616
4.6277	0.0002771173118075
4.6287	0.0002771200905533
4.6297	0.0002771228692991
4.6307	0.0002771256480449
4.6317	0.0002771284267907
4.6327	0.0002771312055365
4.6337	0.0002771339842824
4.6347	0.0002771367630282
4.6357	0.0002771395417740
4.6367	0.0002771423205198
4.6377	0.0002771450992656
4.6387	0.0002771478780115
4.6397	0.0002771506567573
4.6407	0.0002771534355031
4.6417	0.0002771562142489
4.6427	0.0002771589929947
4.6437	0.0002771617717405
4.6447	0.0002771645504864
4.6457	0.0002771673292322
4.6467	0.0002771701079780
4.6477	0.0002771728867238
4.6487	0.0002771756654696
4.6497	0.0002771784442154
4.6507	0.0002771812229613
4.6517	0.0002771840017071
4.6527	0.0002771867804529
4.6537	0.0002771895591987
4.6547	0.0002771923379445
4.6557	0.0002771951166904
4.6567	0.0002771978954362
4.6577	0.0002772006741820
4.6587	0.0002772034529278
4.6597	0.0002772062316736
4.6607	0.0002772090104194
4.6617	0.0002772117891653
4.6627	0.0002772145679111
4.6637	0.0002772173466569
4.6647	0.0002772201254027
4.6657	0.0002772229041485
4.6667	0.0002772256828943
4.6677	0.0002772284616402
4.6687	0.0002772312403860
4.6697	0.0002772340191318
4.6707	0.0002772367978776
4.6717	0.0002772395766234
4.6727	0.0002772423553692
4.6737	0.0002772451341151
4.6747	0.0002772479128609
4.6757	0.0002772506916067
4.6767	0.0002772534703525
4.6777	0.0002772562490983
4.6787	0.0002772590278442
4.6797	0.0002772618065900
4.6807	0.0002772645853358
4.6817	0.0002772673640816
4.6827	0.0002772701428274
4.6837	0.0002772729215732
4.6847	0.0002772757003191
4.6857	0.0002772784790649
4.6867	0.0002772812578107
4.6877	0.0002772840365565
4.6887	0.0002772868153023
4.6897	0.0002772895940481
4.6907	0.0002772923727940
4.6917	0.0002772951515398
4.6927	0.0002772979302856
4.6937	0.0002773007090314
4.6947	0.0002773034877772
4.6957	0.0002773062665231
4.6967	0.0002773090452689
4.6977	0.0002773118240147
4.6987	0.0002773146027605
4.6997	0.0002773173815063
4.7007	0.0002773201602521
4.7017	0.0002773229389980
4.7027	0.0002773257177438
4.7037	0.0002773284964896
4.7047	0.0002773312752354
4.7057	0.0002773340539812
4.7067	0.0002773368327270
4.7077	0.0002773396114729
4.7087	0.0002773423902187
4.7097	0.0002773451689645
4.7107	0.0002773479477103
4.7117	0.0002773507264561
4.7127	0.0002773535052020
4.7137	0.0002773562839478
4.7147	0.0002773590626936
4.7157	0.0002773618414394
4.7167	0.0002773646201852
4.7177	0.0002773673989310
4.7187	0.0002773701776769
4.7197	0.0002773729564227
4.7207	0.0002773757351685
4.7217	0.0002773785139143
4.7227	0.0002773812926601
4.7237	0.0002773840714059
4.7247	0.0002773868501518
4.7257	0.0002773896288976
4.7267	0.0002773924076434
4.7277	0.0002773951863892
4.7287	0.0002773979651350
4.7297	0.0002774007438809
4.7307	0.0002774035226267
4.7317	0.0002774063013725
4.7327	0.0002774090801183
4.7337	0.0002774118588641
4.7347	0.0002774146376099
4.7357	0.0002774174163558
4.7367	0.0002774201951016
4.7377	0.0002774229738474
4.7387	0.0002774257525932
4.7397	0.0002774285313390
4.7407	0.0002774313100848
4.7417	0.0002774340888307
4.7427	0.0002774368675765
4.7437	0.0002774396463223
4.7447	0.0002774424250681
4.7457	0.0002774452038139
4.7467	0.0002774479825598
4.7477	0.0002774507613056
4.7487	0.0002774535400514
4.7497	0.0002774563187972
4.7507	0.0002774590975430
4.7517	0.0002774618762888
4.7527	0.0002774646550347
4.7537	0.0002774674337805
4.7547	0.0002774702125263
4.7557	0.0002774729912721
4.7567	0.0002774757700179
4.7577	0.0002774785487637
4.7587	0.0002774813275096
4.7597	0.0002774841062554
4.7607	0.0002774868850012
4.7617	0.0002774896637470
4.7627	0.0002774924424928
4.7637	0.0002774952212387
4.7647	0.0002774979999845
4.7657	0.0002775007787303
4.7667	0.0002775035574761
4.7677	0.0002775063362219
4.7687	0.0002775091149677
4.7697	0.0002775118937136
4.7707	0.0002775146724594
4.7717	0.0002775174512052
4.7727	0.0002775202299510
4.7737	0.0002775230086968
4.7747	0.0002775257874426
4.7757	0.0002775285661885
4.7767	0.0002775313449343
4.7777	0.0002775341236801
4.7787	0.0002775369024259
4.7797	0.0002775396811717
4.7807	0.0002775424599176
4.7817	0.0002775452386634
4.7827	0.0002775480174092
4.7837	0.0002775507961550
4.7847	0.0002775535749008
4.7857	0.0002775563536466
4.7867	0.0002775591323925
4.7877	0.0002775619111383
4.7887	0.0002775646898841
4.7897	0.0002775674686299
4.7907	0.0002775702473757
4.7917	0.0002775730261215
4.7927	0.0002775758048674
4.7937	0.0002775785836132
4.7947	0.0002775813623590
4.7957	0.0002775841411048
4.7967	0.0002775869198506
4.7977	0.0002775896985965
4.7987	0.0002775924773423
4.7997	0.0002775952560881
4.8007	0.0002775980348339
4.8017	0.0002776008135797
4.8027	0.0002776035923255
4.8037	0.0002776063710714
4.8047	0.0002776091498172
4.8057	0.0002776119285630
4.8067	0.0002776147073088
4.8077	0.0002776174860546
4.8087	0.0002776202648004
4.8097	0.0002776230435463
4.8107	0.0002776258222921
4.8117	0.0002776286010379
4.8127	0.0002776313797837
4.8137	0.0002776341585295
4.8147	0.0002776369372754
4.8157	0.0002776397160212
4.8167	0.0002776424947670
4.8177	0.0002776452735128
4.8187	0.0002776480522586
4.8197	0.0002776508310044
4.8207	0.0002776536097503
4.8217	0.0002776563884961
4.8227	0.0002776591672419
4.8237	0.0002776619459877
4.8247	0.0002776647247335
4.8257	0.0002776675034793
4.8267	0.0002776702822252
4.8277	0.0002776730609710
4.8287	0.0002776758397168
4.8297	0.0002776786184626
4.8307	0.0002776813972084
4.8317	0.0002776841759543
4.8327	0.0002776869547001
4.8337	0.0002776897334459
4.8347	0.0002776925121917
4.8357	0.0002776952909375
4.8367	0.0002776980696833
4.8377	0.0002777008484292
4.8387	0.0002777036271750
4.8397	0.0002777064059208
4.8407	0.0002777091846666
4.8417	0.0002777119634124
4.8427	0.0002777147421582
4.8437	0.0002777175209041
4.8447	0.0002777202996499
4.8457	0.0002777230783957
4.8467	0.0002777258571415
4.8477	0.0002777286358873
4.8487	0.0002777314146332
4.8497	0.0002777341933790
4.8507	0.0002777369721248
4.8517	0.0002777397508706
4.8527	0.0002777425296164
4.8537	0.0002777453083622
4.8547	0.0002777480871081
4.8557	0.0002777508658539
4.8567	0.0002777536445997
4.8577	0.0002777564233455
4.8587	0.0002777592020913
4.8597	0.0002777619808371
4.8607	0.0002777647595830
4.8617	0.0002777675383288
4.8627	0.0002777703170746
4.8637	0.0002777730958204
4.8647	0.0002777758745662
4.8657	0.0002777786533121
4.8667	0.0002777814320579
4.8677	0.0002777842108037
4.8687	0.0002777869895495
4.8697	0.0002777897682953
4.8707	0.0002777925470411
4.8717	0.0002777953257870
4.8727	0.0002777981045328
4.8737	0.0002778008832786
4.8747	0.0002778036620244
4.8757	0.0002778064407702
4.8767	0.0002778092195160
4.8777	0.0002778119982619
4.8787	0.0002778147770077
4.8797	0.0002778175557535
4.8807	0.0002778203344993
4.8817	0.0002778231132451
4.8827	0.0002778258919910
4.8837	0.0002778286707368
4.8847	0.0002778314494826
4.8857	0.0002778342282284
4.8867	0.0002778370069742
4.8877	0.0002778397857200
4.8887	0.0002778425644659
4.8897	0.0002778453432117
4.8907	0.0002778481219575
4.8917	0.0002778509007033
4.8927	0.0002778536794491
4.8937	0.0002778564581949
4.8947	0.0002778592369408
4.8957	0.0002778620156866
4.8967	0.0002778647944324
4.8977	0.0002778675731782
4.8987	0.0002778703519240
4.8997	0.0002778731306698
4.9007	0.0002778759094157
4.9017	0.0002778786881615
4.9027	0.0002778814669073
4.9037	0.0002778842456531
4.9047	0.0002778870243989
4.9057	0.0002778898031448
4.9067	0.0002778925818906
4.9077	0.0002778953606364
4.9087	0.0002778981393822
4.9097	0.0002779009181280
4.9107	0.0002779036968738
4.9117	0.0002779064756197
4.9127	0.0002779092543655
4.9137	0.0002779120331113
4.9147	0.0002779148118571
4.9157	0.0002779175906029
4.9167	0.0002779203693487
4.9177	0.0002779231480946
4.9187	0.0002779259268404
4.9197	0.0002779287055862
4.9207	0.0002779314843320
4.9217	0.0002779342630778
4.9227	0.0002779370418237
4.9237	0.0002779398205695
4.9247	0.0002779425993153
4.9257	0.0002779453780611
4.9267	0.0002779481568069
4.9277	0.0002779509355527
4.9287	0.0002779537142986
4.9297	0.0002779564930444
4.9307	0.0002779592717902
4.9317	0.0002779620505360
4.9327	0.0002779648292818
4.9337	0.0002779676080276
4.9347	0.0002779703867735
4.9357	0.0002779731655193
4.9367	0.0002779759442651
4.9377	0.0002779787230109
4.9387	0.0002779815017567
4.9397	0.0002779842805026
4.9407	0.0002779870592484
4.9417	0.0002779898379942
4.9427	0.0002779926167400
4.9437	0.0002779953954858
4.9447	0.0002779981742316
4.9457	0.0002780009529775
4.9467	0.0002780037317233
4.9477	0.0002780065104691
4.9487	0.0002780092892149
4.9497	0.0002780120679607
4.9507	0.0002780148467065
4.9517	0.0002780176254524
4.9527	0.0002780204041982
4.9537	0.0002780231829440
4.9547	0.0002780259616898
4.9557	0.0002780287404356
4.9567	0.0002780315191815
4.9577	0.0002780342979273
4.9587	0.0002780370766731
4.9597	0.0002780398554189
4.9607	0.0002780426341647
4.9617	0.0002780454129105
4.9627	0.0002780481916564
4.9637	0.0002780509704022
4.9647	0.0002780537491480
4.9657	0.0002780565278938
4.9667	0.0002780593066396
4.9677	0.0002780620853854
4.9687	0.0002780648641313
4.9697	0.0002780676428771
4.9707	0.0002780704216229
4.9717	0.0002780732003687
4.9727	0.0002780759791145
4.9737	0.0002780787578604
4.9747	0.0002780815366062
4.9757	0.0002780843153520
4.9767	0.0002780870940978
4.9777	0.0002780898728436
4.9787	0.0002780926515894
4.9797	0.0002780954303353
4.9807	0.0002780982090811
4.9817	0.0002781009878269
4.9827	0.0002781037665727
4.9837	0.0002781065453185
4.9847	0.0002781093240643
4.9857	0.0002781121028102
4.9867	0.0002781148815560
4.9877	0.0002781176603018
4.9887	0.0002781204390476
4.9897	0.0002781232177934
4.9907	0.0002781259965393
4.9917	0.0002781287752851
4.9927	0.0002781315540309
4.9937	0.0002781343327767
4.9947	0.0002781371115225
4.9957	0.0002781398902683
4.9967	0.0002781426690142
4.9977	0.0002781454477600
4.9987	0.0002781482265058
4.9997	0.0002781510052516
5.0007	0.0002781537839974
5.0017	0.0002781565627432
5.0027	0.0002781593414891
5.0037	0.0002781621202349
5.0047	0.0002781648989807
5.0057	0.0002781676777265
5.0067	0.0002781704564723
5.0077	0.0002781732352182
5.0087	0.0002781760139640
5.0097	0.0002781787927098
5.0107	0.0002781815714556
5.0117	0.0002781843502014
5.0127	0.0002781871289472
5.0137	0.0002781899076931
5.0147	0.0002781926864389
5.0157	0.0002781954651847
5.0167	0.0002781982439305
5.0177	0.0002782010226763
5.0187	0.0002782038014221
5.0197	0.0002782065801680
5.0207	0.0002782093589138
5.0217	0.0002782121376596
5.0227	0.0002782149164054
5.0237	0.0002782176951512
5.0247	0.0002782204738971
5.0257	0.0002782232526429
5.0267	0.0002782260313887
5.0277	0.0002782288101345
5.0287	0.0002782315888803
5.0297	0.0002782343676261
5.0307	0.0002782371463720
5.0317	0.0002782399251178
5.0327	0.0002782427038636
5.0337	0.0002782454826094
5.0347	0.0002782482613552
5.0357	0.0002782510401010
5.0367	0.0002782538188469
5.0377	0.0002782565975927
5.0387	0.0002782593763385
5.0397	0.0002782621550843
5.0407	0.0002782649338301
5.0417	0.0002782677125760
5.0427	0.0002782704913218
5.0437	0.0002782732700676
5.0447	0.0002782760488134
5.0457	0.0002782788275592
5.0467	0.0002782816063050
5.0477	0.0002782843850509
5.0487	0.0002782871637967
5.0497	0.0002782899425425
5.0507	0.0002782927212883
5.0517	0.0002782955000341
5.0527	0.0002782982787799
5.0537	0.0002783010575258
5.0547	0.0002783038362716
5.0557	0.0002783066150174
5.0567	0.0002783093937632
5.0577	0.0002783121725090
5.0587	0.0002783149512549
5.0597	0.0002783177300007
5.0607	0.0002783205087465
5.0617	0.0002783232874923
5.0627	0.0002783260662381
5.0637	0.0002783288449839
5.0647	0.0002783316237298
5.0657	0.0002783344024756
5.0667	0.0002783371812214
5.0677	0.0002783399599672
5.0687	0.0002783427387130
5.0697	0.0002783455174588
5.0707	0.0002783482962047
5.0717	0.0002783510749505
5.0727	0.0002783538536963
5.0737	0.0002783566324421
5.0747	0.0002783594111879
5.0757	0.0002783621899338
5.0767	0.0002783649686796
5.0777	0.0002783677474254
5.0787	0.0002783705261712
5.0797	0.0002783733049170
5.0807	0.0002783760836628
5.0817	0.0002783788624087
5.0827	0.0002783816411545
5.0837	0.0002783844199003
5.0847	0.0002783871986461
5.0857	0.0002783899773919
5.0867	0.0002783927561377
5.0877	0.0002783955348836
5.0887	0.0002783983136294
5.0897	0.0002784010923752
5.0907	0.0002784038711210
5.0917	0.0002784066498668
5.0927	0.0002784094286127
5.0937	0.0002784122073585
5.0947	0.0002784149861043
5.0957	0.0002784177648501
5.0967	0.0002784205435959
5.0977	0.0002784233223417
5.0987	0.0002784261010876
5.0997	0.0002784288798334
5.1007	0.0002784316585792
5.1017	0.0002784344373250
5.1027	0.0002784372160708
5.1037	0.0002784399948166
5.1047	0.0002784427735625
5.1057	0.0002784455523083
5.1067	0.0002784483310541
5.1077	0.0002784511097999
5.1087	0.0002784538885457
5.1097	0.0002784566672916
5.1107	0.0002784594460374
5.1117	0.0002784622247832
5.1127	0.0002784650035290
5.1137	0.0002784677822748
5.1147	0.0002784705610206
5.1157	0.0002784733397665
5.1167	0.0002784761185123
5.1177	0.0002784788972581
5.1187	0.0002784816760039
5.1197	0.0002784844547497
5.1207	0.0002784872334955
5.1217	0.0002784900122414
5.1227	0.0002784927909872
5.1237	0.0002784955697330
5.1247	0.0002784983484788
5.1257	0.0002785011272246
5.1267	0.0002785039059704
5.1277	0.0002785066847163
5.1287	0.0002785094634621
5.1297	0.0002785122422079
5.1307	0.0002785150209537
5.1317	0.0002785177996995
5.1327	0.0002785205784454
5.1337	0.0002785233571912
5.1347	0.0002785261359370
5.1357	0.0002785289146828
5.1367	0.0002785316934286
5.1377	0.0002785344721744
5.1387	0.0002785372509203
5.1397	0.0002785400296661
5.1407	0.0002785428084119
5.1417	0.0002785455871577
5.1427	0.0002785483659035
5.1437	0.0002785511446493
5.1447	0.0002785539233952
5.1457	0.0002785567021410
5.1467	0.0002785594808868
5.1477	0.0002785622596326
5.1487	0.0002785650383784
5.1497	0.0002785678171243
5.1507	0.0002785705958701
5.1517	0.0002785733746159
5.1527	0.0002785761533617
5.1537	0.0002785789321075
5.1547	0.0002785817108533
5.1557	0.0002785844895992
5.1567	0.0002785872683450
5.1577	0.0002785900470908
5.1587	0.0002785928258366
5.1597	0.0002785956045824
5.1607	0.0002785983833282
5.1617	0.0002786011620741
5.1627	0.0002786039408199
5.1637	0.0002786067195657
5.1647	0.0002786094983115
5.1657	0.0002786122770573
5.1667	0.0002786150558032
5.1677	0.0002786178345490
5.1687	0.0002786206132948
5.1697	0.0002786233920406
5.1707	0.0002786261707864
5.1717	0.0002786289495322
5.1727	0.0002786317282781
5.1737	0.0002786345070239
5.1747	0.0002786372857697
5.1757	0.0002786400645155
5.1767	0.0002786428432613
5.1777	0.0002786456220071
5.1787	0.0002786484007530
5.1797	0.0002786511794988
5.1807	0.0002786539582446
5.1817	0.0002786567369904
5.1827	0.0002786595157362
5.1837	0.0002786622944821
5.1847	0.0002786650732279
5.1857	0.0002786678519737
5.1867	0.0002786706307195
5.1877	0.0002786734094653
5.1887	0.0002786761882111
5.1897	0.0002786789669570
5.1907	0.0002786817457028
5.1917	0.0002786845244486
5.1927	0.0002786873031944
5.1937	0.0002786900819402
5.1947	0.0002786928606860
5.1957	0.0002786956394319
5.1967	0.0002786984181777
5.1977	0.0002787011969235
5.1987	0.0002787039756693
5.1997	0.0002787067544151
5.2007	0.0002787095331610
5.2017	0.0002787123119068
5.2027	0.0002787150906526
5.2037	0.0002787178693984
5.2047	0.0002787206481442
5.2057	0.0002787234268900
5.2067	0.0002787262056359
5.2077	0.0002787289843817
5.2087	0.0002787317631275
5.2097	0.0002787345418733
5.2107	0.0002787373206191
5.2117	0.0002787400993649
5.2127	0.0002787428781108
5.2137	0.0002787456568566
5.2147	0.0002787484356024
5.2157	0.0002787512143482
5.2167	0.0002787539930940
5.2177	0.0002787567718399
5.2187	0.0002787595505857
5.2197	0.0002787623293315
5.2207	0.0002787651080773
5.2217	0.0002787678868231
5.2227	0.0002787706655689
5.2237	0.0002787734443148
5.2247	0.0002787762230606
5.2257	0.0002787790018064
5.2267	0.0002787817805522
5.2277	0.0002787845592980
5.2287	0.0002787873380438
5.2297	0.0002787901167897
5.2307	0.0002787928955355
5.2317	0.0002787956742813
5.2327	0.0002787984530271
5.2337	0.0002788012317729
5.2347	0.0002788040105188
5.2357	0.0002788067892646
5.2367	0.0002788095680104
5.2377	0.0002788123467562
5.2387	0.0002788151255020
5.2397	0.0002788179042478
5.2407	0.0002788206829937
5.2417	0.0002788234617395
5.2427	0.0002788262404853
5.2437	0.0002788290192311
5.2447	0.0002788317979769
5.2457	0.0002788345767227
5.2467	0.0002788373554686
5.2477	0.0002788401342144
5.2487	0.0002788429129602
5.2497	0.0002788456917060
5.2507	0.0002788484704518
5.2517	0.0002788512491977
5.2527	0.0002788540279435
5.2537	0.0002788568066893
5.2547	0.0002788595854351
5.2557	0.0002788623641809
5.2567	0.0002788651429267
5.2577	0.0002788679216726
5.2587	0.0002788707004184
5.2597	0.0002788734791642
5.2607	0.0002788762579100
5.2617	0.0002788790366558
5.2627	0.0002788818154016
5.2637	0.0002788845941475
5.2647	0.0002788873728933
5.2657	0.0002788901516391
5.2667	0.0002788929303849
5.2677	0.0002788957091307
5.2687	0.0002788984878766
5.2697	0.0002789012666224
5.2707	0.0002789040453682
5.2717	0.0002789068241140
5.2727	0.0002789096028598
5.2737	0.0002789123816056
5.2747	0.0002789151603515
5.2757	0.0002789179390973
5.2767	0.0002789207178431
5.2777	0.0002789234965889
5.2787	0.0002789262753347
5.2797	0.0002789290540805
5.2807	0.0002789318328264
5.2817	0.0002789346115722
5.2827	0.0002789373903180
5.2837	0.0002789401690638
5.2847	0.0002789429478096
5.2857	0.0002789457265555
5.2867	0.0002789485053013
5.2877	0.0002789512840471
5.2887	0.0002789540627929
5.2897	0.0002789568415387
5.2907	0.0002789596202845
5.2917	0.0002789623990304
5.2927	0.0002789651777762
5.2937	0.0002789679565220
5.2947	0.0002789707352678
5.2957	0.0002789735140136
5.2967	0.0002789762927594
5.2977	0.0002789790715053
5.2987	0.0002789818502511
5.2997	0.0002789846289969
5.3007	0.0002789874077427
5.3017	0.0002789901864885
5.3027	0.0002789929652344
5.3037	0.0002789957439802
5.3047	0.0002789985227260
5.3057	0.0002790013014718
5.3067	0.0002790040802176
5.3077	0.0002790068589634
5.3087	0.0002790096377093
5.3097	0.0002790124164551
5.3107	0.0002790151952009
5.3117	0.0002790179739467
5.3127	0.0002790207526925
5.3137	0.0002790235314383
5.3147	0.0002790263101842
5.3157	0.0002790290889300
5.3167	0.0002790318676758
5.3177	0.0002790346464216
5.3187	0.0002790374251674
5.3197	0.0002790402039133
5.3207	0.0002790429826591
5.3217	0.0002790457614049
5.3227	0.0002790485401507
5.3237	0.0002790513188965
5.3247	0.0002790540976423
5.3257	0.0002790568763882
5.3267	0.0002790596551340
5.3277	0.0002790624338798
5.3287	0.0002790652126256
5.3297	0.0002790679913714
5.3307	0.0002790707701172
5.3317	0.0002790735488631
5.3327	0.0002790763276089
5.3337	0.0002790791063547
5.3347	0.0002790818851005
5.3357	0.0002790846638463
5.3367	0.0002790874425922
5.3377	0.0002790902213380
5.3387	0.0002790930000838
5.3397	0.0002790957788296
5.3407	0.0002790985575754
5.3417	0.0002791013363212
5.3427	0.0002791041150671
5.3437	0.0002791068938129
5.3447	0.0002791096725587
5.3457	0.0002791124513045
5.3467	0.0002791152300503
5.3477	0.0002791180087961
5.3487	0.0002791207875420
5.3497	0.0002791235662878
5.3507	0.0002791263450336
5.3517	0.0002791291237794
5.3527	0.0002791319025252
5.3537	0.0002791346812710
5.3547	0.0002791374600169
5.3557	0.0002791402387627
5.3567	0.0002791430175085
5.3577	0.0002791457962543
5.3587	0.0002791485750001
5.3597	0.0002791513537460
5.3607	0.0002791541324918
5.3617	0.0002791569112376
5.3627	0.0002791596899834
5.3637	0.0002791624687292
5.3647	0.0002791652474750
5.3657	0.0002791680262209
5.3667	0.0002791708049667
5.3677	0.0002791735837125
5.3687	0.0002791763624583
5.3697	0.0002791791412041
5.3707	0.0002791819199499
5.3717	0.0002791846986958
5.3727	0.0002791874774416
5.3737	0.0002791902561874
5.3747	0.0002791930349332
5.3757	0.0002791958136790
5.3767	0.0002791985924249
5.3777	0.0002792013711707
5.3787	0.0002792041499165
5.3797	0.0002792069286623
5.3807	0.0002792097074081
5.3817	0.0002792124861539
5.3827	0.0002792152648998
5.3837	0.0002792180436456
5.3847	0.0002792208223914
5.3857	0.0002792236011372
5.3867	0.0002792263798830
5.3877	0.0002792291586288
5.3887	0.0002792319373747
5.3897	0.0002792347161205
5.3907	0.0002792374948663
5.3917	0.0002792402736121
5.3927	0.0002792430523579
5.3937	0.0002792458311038
5.3947	0.0002792486098496
5.3957	0.0002792513885954
5.3967	0.0002792541673412
5.3977	0.0002792569460870
5.3987	0.0002792597248328
5.3997	0.0002792625035787
5.4007	0.0002792652823245
5.4017	0.0002792680610703
5.4027	0.0002792708398161
5.4037	0.0002792736185619
5.4047	0.0002792763973077
5.4057	0.0002792791760536
5.4067	0.0002792819547994
5.4077	0.0002792847335452
5.4087	0.0002792875122910
5.4097	0.0002792902910368
5.4107	0.0002792930697827
5.4117	0.0002792958485285
5.4127	0.0002792986272743
5.4137	0.0002793014060201
5.4147	0.0002793041847659
5.4157	0.0002793069635117
5.4167	0.0002793097422576
5.4177	0.0002793125210034
5.4187	0.0002793152997492
5.4197	0.0002793180784950
5.4207	0.0002793208572408
5.4217	0.0002793236359866
5.4227	0.0002793264147325
5.4237	0.0002793291934783
5.4247	0.0002793319722241
5.4257	0.0002793347509699
5.4267	0.0002793375297157
5.4277	0.0002793403084616
5.4287	0.0002793430872074
5.4297	0.0002793458659532
5.4307	0.0002793486446990
5.4317	0.0002793514234448
5.4327	0.0002793542021906
5.4337	0.0002793569809365
5.4347	0.0002793597596823
5.4357	0.0002793625384281
5.4367	0.0002793653171739
5.4377	0.0002793680959197
5.4387	0.0002793708746655
5.4397	0.0002793736534114
5.4407	0.0002793764321572
5.4417	0.0002793792109030
5.4427	0.0002793819896488
5.4437	0.0002793847683946
5.4447	0.0002793875471405
5.4457	0.0002793903258863
5.4467	0.0002793931046321
5.4477	0.0002793958833779
5.4487	0.0002793986621237
5.4497	0.0002794014408695
5.4507	0.0002794042196154
5.4517	0.0002794069983612
5.4527	0.0002794097771070
5.4537	0.0002794125558528
5.4547	0.0002794153345986
5.4557	0.0002794181133444
5.4567	0.0002794208920903
5.4577	0.0002794236708361
5.4587	0.0002794264495819
5.4597	0.0002794292283277
5.4607	0.0002794320070735
5.4617	0.0002794347858194
5.4627	0.0002794375645652
5.4637	0.0002794403433110
5.4647	0.0002794431220568
5.4657	0.0002794459008026
5.4667	0.0002794486795484
5.4677	0.0002794514582943
5.4687	0.0002794542370401
5.4697	0.0002794570157859
5.4707	0.0002794597945317
5.4717	0.0002794625732775
5.4727	0.0002794653520233
5.4737	0.0002794681307692
5.4747	0.0002794709095150
5.4757	0.0002794736882608
5.4767	0.0002794764670066
5.4777	0.0002794792457524
5.4787	0.0002794820244983
5.4797	0.0002794848032441
5.4807	0.0002794875819899
5.4817	0.0002794903607357
5.4827	0.0002794931394815
5.4837	0.0002794959182273
5.4847	0.0002794986969732
5.4857	0.0002795014757190
5.4867	0.0002795042544648
5.4877	0.0002795070332106
5.4887	0.0002795098119564
5.4897	0.0002795125907022
5.4907	0.0002795153694481
5.4917	0.0002795181481939
5.4927	0.0002795209269397
5.4937	0.0002795237056855
5.4947	0.0002795264844313
5.4957	0.0002795292631772
5.4967	0.0002795320419230
5.4977	0.0002795348206688
5.4987	0.0002795375994146
5.4997	0.0002795403781604
5.5007	0.0002795431569062
5.5017	0.0002795459356521
5.5027	0.0002795487143979
5.5037	0.0002795514931437
5.5047	0.0002795542718895
5.5057	0.0002795570506353
5.5067	0.0002795598293811
5.5077	0.0002795626081270
5.5087	0.0002795653868728
5.5097	0.0002795681656186
5.5107	0.0002795709443644
5.5117	0.0002795737231102
5.5127	0.0002795765018561
5.5137	0.0002795792806019
5.5147	0.0002795820593477
5.5157	0.0002795848380935
5.5167	0.0002795876168393
5.5177	0.0002795903955851
5.5187	0.0002795931743310
5.5197	0.0002795959530768
5.5207	0.0002795987318226
5.5217	0.0002796015105684
5.5227	0.0002796042893142
5.5237	0.0002796070680600
5.5247	0.0002796098468059
5.5257	0.0002796126255517
5.5267	0.0002796154042975
5.5277	0.0002796181830433
5.5287	0.0002796209617891
5.5297	0.0002796237405350
5.5307	0.0002796265192808
5.5317	0.0002796292980266
5.5327	0.0002796320767724
5.5337	0.0002796348555182
5.5347	0.0002796376342640
5.5357	0.0002796404130099
5.5367	0.0002796431917557
5.5377	0.0002796459705015
5.5387	0.0002796487492473
5.5397	0.0002796515279931
5.5407	0.0002796543067389
5.5417	0.0002796570854848
5.5427	0.0002796598642306
5.5437	0.0002796626429764
5.5447	0.0002796654217222
5.5457	0.0002796682004680
5.5467	0.0002796709792139
5.5477	0.0002796737579597
5.5487	0.0002796765367055
5.5497	0.0002796793154513
5.5507	0.0002796820941971
5.5517	0.0002796848729429
5.5527	0.0002796876516888
5.5537	0.0002796904304346
5.5547	0.0002796932091804
5.5557	0.0002796959879262
5.5567	0.0002796987666720
5.5577	0.0002797015454178
5.5587	0.0002797043241637
5.5597	0.0002797071029095
5.5607	0.0002797098816553
5.5617	0.0002797126604011
5.5627	0.0002797154391469
5.5637	0.0002797182178927
5.5647	0.0002797209966386
5.5657	0.0002797237753844
5.5667	0.0002797265541302
5.5677	0.0002797293328760
5.5687	0.0002797321116218
5.5697	0.0002797348903677
5.5707	0.0002797376691135
5.5717	0.0002797404478593
5.5727	0.0002797432266051
5.5737	0.0002797460053509
5.5747	0.0002797487840967
5.5757	0.0002797515628426
5.5767	0.0002797543415884
5.5777	0.0002797571203342
5.5787	0.0002797598990800
5.5797	0.0002797626778258
5.5807	0.0002797654565716
5.5817	0.0002797682353175
5.5827	0.0002797710140633
5.5837	0.0002797737928091
5.5847	0.0002797765715549
5.5857	0.0002797793503007
5.5867	0.0002797821290466
5.5877	0.0002797849077924
5.5887	0.0002797876865382
5.5897	0.0002797904652840
5.5907	0.0002797932440298
5.5917	0.0002797960227756
5.5927	0.0002797988015215
5.5937	0.0002798015802673
5.5947	0.0002798043590131
5.5957	0.0002798071377589
5.5967	0.0002798099165047
5.5977	0.0002798126952505
5.5987	0.0002798154739964
5.5997	0.0002798182527422
5.6007	0.0002798210314880
5.6017	0.0002798238102338
5.6027	0.0002798265889796
5.6037	0.0002798293677255
5.6047	0.0002798321464713
5.6057	0.0002798349252171
5.6067	0.0002798377039629
5.6077	0.0002798404827087
5.6087	0.0002798432614545
5.6097	0.0002798460402004
5.6107	0.0002798488189462
5.6117	0.0002798515976920
5.6127	0.0002798543764378
5.6137	0.0002798571551836
5.6147	0.0002798599339294
5.6157	0.0002798627126753
5.6167	0.0002798654914211
5.6177	0.0002798682701669
5.6187	0.0002798710489127
5.6197	0.0002798738276585
5.6207	0.0002798766064044
5.6217	0.0002798793851502
5.6227	0.0002798821638960
5.6237	0.0002798849426418
5.6247	0.0002798877213876
5.6257	0.0002798905001334
5.6267	0.0002798932788793
5.6277	0.0002798960576251
5.6287	0.0002798988363709
5.6297	0.0002799016151167
5.6307	0.0002799043938625
5.6317	0.0002799071726083
5.6327	0.0002799099513542
5.6337	0.0002799127301000
5.6347	0.0002799155088458
5.6357	0.0002799182875916
5.6367	0.0002799210663374
5.6377	0.0002799238450833
5.6387	0.0002799266238291
5.6397	0.0002799294025749
5.6407	0.0002799321813207
5.6417	0.0002799349600665
5.6427	0.0002799377388123
5.6437	0.0002799405175582
5.6447	0.0002799432963040
5.6457	0.0002799460750498
5.6467	0.0002799488537956
5.6477	0.0002799516325414
5.6487	0.0002799544112872
5.6497	0.0002799571900331
5.6507	0.0002799599687789
5.6517	0.0002799627475247
5.6527	0.0002799655262705
5.6537	0.0002799683050163
5.6547	0.0002799710837622
5.6557	0.0002799738625080
5.6567	0.0002799766412538
5.6577	0.0002799794199996
5.6587	0.0002799821987454
5.6597	0.0002799849774912
5.6607	0.0002799877562371
5.6617	0.0002799905349829
5.6627	0.0002799933137287
5.6637	0.0002799960924745
5.6647	0.0002799988712203
5.6657	0.0002800016499661
5.6667	0.0002800044287120
5.6677	0.0002800072074578
5.6687	0.0002800099862036
5.6697	0.0002800127649494
5.6707	0.0002800155436952
5.6717	0.0002800183224411
5.6727	0.0002800211011869
5.6737	0.0002800238799327
5.6747	0.0002800266586785
5.6757	0.0002800294374243
5.6767	0.0002800322161701
5.6777	0.0002800349949160
5.6787	0.0002800377736618
5.6797	0.0002800405524076
5.6807	0.0002800433311534
5.6817	0.0002800461098992
5.6827	0.0002800488886450
5.6837	0.0002800516673909
5.6847	0.0002800544461367
5.6857	0.0002800572248825
5.6867	0.0002800600036283
5.6877	0.0002800627823741
5.6887	0.0002800655611200
5.6897	0.0002800683398658
5.6907	0.0002800711186116
5.6917	0.0002800738973574
5.6927	0.0002800766761032
5.6937	0.0002800794548490
5.6947	0.0002800822335949
5.6957	0.0002800850123407
5.6967	0.0002800877910865
5.6977	0.0002800905698323
5.6987	0.0002800933485781
5.6997	0.0002800961273239
5.7007	0.0002800989060698
5.7017	0.0002801016848156
5.7027	0.0002801044635614
5.7037	0.0002801072423072
5.7047	0.0002801100210530
5.7057	0.0002801127997989
5.7067	0.0002801155785447
5.7077	0.0002801183572905
5.7087	0.0002801211360363
5.7097	0.0002801239147821
5.7107	0.0002801266935279
5.7117	0.0002801294722738
5.7127	0.0002801322510196
5.7137	0.0002801350297654
5.7147	0.0002801378085112
5.7157	0.0002801405872570
5.7167	0.0002801433660028
5.7177	0.0002801461447487
5.7187	0.0002801489234945
5.7197	0.0002801517022403
5.7207	0.0002801544809861
5.7217	0.0002801572597319
5.7227	0.0002801600384778
5.7237	0.0002801628172236
5.7247	0.0002801655959694
5.7257	0.0002801683747152
5.7267	0.0002801711534610
5.7277	0.0002801739322068
5.7287	0.0002801767109527
5.7297	0.0002801794896985
5.7307	0.0002801822684443
5.7317	0.0002801850471901
5.7327	0.0002801878259359
5.7337	0.0002801906046817
5.7347	0.0002801933834276
5.7357	0.0002801961621734
5.7367	0.0002801989409192
5.7377	0.0002802017196650
5.7387	0.0002802044984108
5.7397	0.0002802072771567
5.7407	0.0002802100559025
5.7417	0.0002802128346483
5.7427	0.0002802156133941
5.7437	0.0002802183921399
5.7447	0.0002802211708857
5.7457	0.0002802239496316
5.7467	0.0002802267283774
5.7477	0.0002802295071232
5.7487	0.0002802322858690
5.7497	0.0002802350646148
5.7507	0.0002802378433606
5.7517	0.0002802406221065
5.7527	0.0002802434008523
5.7537	0.0002802461795981
5.7547	0.0002802489583439
5.7557	0.0002802517370897
5.7567	0.0002802545158356
5.7577	0.0002802572945814
5.7587	0.0002802600733272
5.7597	0.0002802628520730
5.7607	0.0002802656308188
5.7617	0.0002802684095646
5.7627	0.0002802711883105
5.7637	0.0002802739670563
5.7647	0.0002802767458021
5.7657	0.0002802795245479
5.7667	0.0002802823032937
5.7677	0.0002802850820395
5.7687	0.0002802878607854
5.7697	0.0002802906395312
5.7707	0.0002802934182770
5.7717	0.0002802961970228
5.7727	0.0002802989757686
5.7737	0.0002803017545145
5.7747	0.0002803045332603
5.7757	0.0002803073120061
5.7767	0.0002803100907519
5.7777	0.0002803128694977
5.7787	0.0002803156482435
5.7797	0.0002803184269894
5.7807	0.0002803212057352
5.7817	0.0002803239844810
5.7827	0.0002803267632268
5.7837	0.0002803295419726
5.7847	0.0002803323207184
5.7857	0.0002803350994643
5.7867	0.0002803378782101
5.7877	0.0002803406569559
5.7887	0.0002803434357017
5.7897	0.0002803462144475
5.7907	0.0002803489931933
5.7917	0.0002803517719392
5.7927	0.0002803545506850
5.7937	0.0002803573294308
5.7947	0.0002803601081766
5.7957	0.0002803628869224
5.7967	0.0002803656656683
5.7977	0.0002803684444141
5.7987	0.0002803712231599
5.7997	0.0002803740019057
5.8007	0.0002803767806515
5.8017	0.0002803795593973
5.8027	0.0002803823381432
5.8037	0.0002803851168890
5.8047	0.0002803878956348
5.8057	0.0002803906743806
5.8067	0.0002803934531264
5.8077	0.0002803962318722
5.8087	0.0002803990106181
5.8097	0.0002804017893639
5.8107	0.0002804045681097
5.8117	0.0002804073468555
5.8127	0.0002804101256013
5.8137	0.0002804129043472
5.8147	0.0002804156830930
5.8157	0.0002804184618388
5.8167	0.0002804212405846
5.8177	0.0002804240193304
5.8187	0.0002804267980762
5.8197	0.0002804295768221
5.8207	0.0002804323555679
5.8217	0.0002804351343137
5.8227	0.0002804379130595
5.8237	0.0002804406918053
5.8247	0.0002804434705511
5.8257	0.0002804462492970
5.8267	0.0002804490280428
5.8277	0.0002804518067886
5.8287	0.0002804545855344
5.8297	0.0002804573642802
5.8307	0.0002804601430261
5.8317	0.0002804629217719
5.8327	0.0002804657005177
5.8337	0.0002804684792635
5.8347	0.0002804712580093
5.8357	0.0002804740367551
5.8367	0.0002804768155010
5.8377	0.0002804795942468
5.8387	0.0002804823729926
5.8397	0.0002804851517384
5.8407	0.0002804879304842
5.8417	0.0002804907092300
5.8427	0.0002804934879759
5.8437	0.0002804962667217
5.8447	0.0002804990454675
5.8457	0.0002805018242133
5.8467	0.0002805046029591
5.8477	0.0002805073817050
5.8487	0.0002805101604508
5.8497	0.0002805129391966
5.8507	0.0002805157179424
5.8517	0.0002805184966882
5.8527	0.0002805212754340
5.8537	0.0002805240541799
5.8547	0.0002805268329257
5.8557	0.0002805296116715
5.8567	0.0002805323904173
5.8577	0.0002805351691631
5.8587	0.0002805379479089
5.8597	0.0002805407266548
5.8607	0.0002805435054006
5.8617	0.0002805462841464
5.8627	0.0002805490628922
5.8637	0.0002805518416380
5.8647	0.0002805546203839
5.8657	0.0002805573991297
5.8667	0.0002805601778755
5.8677	0.0002805629566213
5.8687	0.0002805657353671
5.8697	0.0002805685141129
5.8707	0.0002805712928588
5.8717	0.0002805740716046
5.8727	0.0002805768503504
5.8737	0.0002805796290962
5.8747	0.0002805824078420
5.8757	0.0002805851865878
5.8767	0.0002805879653337
5.8777	0.0002805907440795
5.8787	0.0002805935228253
5.8797	0.0002805963015711
5.8807	0.0002805990803169
5.8817	0.0002806018590628
5.8827	0.0002806046378086
5.8837	0.0002806074165544
5.8847	0.0002806101953002
5.8857	0.0002806129740460
5.8867	0.0002806157527918
5.8877	0.0002806185315377
5.8887	0.0002806213102835
5.8897	0.0002806240890293
5.8907	0.0002806268677751
5.8917	0.0002806296465209
5.8927	0.0002806324252667
5.8937	0.0002806352040126
5.8947	0.0002806379827584
5.8957	0.0002806407615042
5.8967	0.0002806435402500
5.8977	0.0002806463189958
5.8987	0.0002806490977417
5.8997	0.0002806518764875
5.9007	0.0002806546552333
5.9017	0.0002806574339791
5.9027	0.0002806602127249
5.9037	0.0002806629914707
5.9047	0.0002806657702166
5.9057	0.0002806685489624
5.9067	0.0002806713277082
5.9077	0.0002806741064540
5.9087	0.0002806768851998
5.9097	0.0002806796639456
5.9107	0.0002806824426915
5.9117	0.0002806852214373
5.9127	0.0002806880001831
5.9137	0.0002806907789289
5.9147	0.0002806935576747
5.9157	0.0002806963364206
5.9167	0.0002806991151664
5.9177	0.0002807018939122
5.9187	0.0002807046726580
5.9197	0.0002807074514038
5.9207	0.0002807102301496
5.9217	0.0002807130088955
5.9227	0.0002807157876413
5.9237	0.0002807185663871
5.9247	0.0002807213451329
5.9257	0.0002807241238787
5.9267	0.0002807269026245
5.9277	0.0002807296813704
5.9287	0.0002807324601162
5.9297	0.0002807352388620
5.9307	0.0002807380176078
5.9317	0.0002807407963536
5.9327	0.0002807435750995
5.9337	0.0002807463538453
5.9347	0.0002807491325911
5.9357	0.0002807519113369
5.9367	0.0002807546900827
5.9377	0.0002807574688285
5.9387	0.0002807602475744
5.9397	0.0002807630263202
5.9407	0.0002807658050660
5.9417	0.0002807685838118
5.9427	0.0002807713625576
5.9437	0.0002807741413034
5.9447	0.0002807769200493
5.9457	0.0002807796987951
5.9467	0.0002807824775409
5.9477	0.0002807852562867
5.9487	0.0002807880350325
5.9497	0.0002807908137784
5.9507	0.0002807935925242
5.9517	0.0002807963712700
5.9527	0.0002807991500158
5.9537	0.0002808019287616
5.9547	0.0002808047075074
5.9557	0.0002808074862533
5.9567	0.0002808102649991
5.9577	0.0002808130437449
5.9587	0.0002808158224907
5.9597	0.0002808186012365
5.9607	0.0002808213799823
5.9617	0.0002808241587282
5.9627	0.0002808269374740
5.9637	0.0002808297162198
5.9647	0.0002808324949656
5.9657	0.0002808352737114
5.9667	0.0002808380524573
5.9677	0.0002808408312031
5.9687	0.0002808436099489
5.9697	0.0002808463886947
5.9707	0.0002808491674405
5.9717	0.0002808519461863
5.9727	0.0002808547249322
5.9737	0.0002808575036780
5.9747	0.0002808602824238
5.9757	0.0002808630611696
5.9767	0.0002808658399154
5.9777	0.0002808686186612
5.9787	0.0002808713974071
5.9797	0.0002808741761529
5.9807	0.0002808769548987
5.9817	0.0002808797336445
5.9827	0.0002808825123903
5.9837	0.0002808852911362
5.9847	0.0002808880698820
5.9857	0.0002808908486278
5.9867	0.0002808936273736
5.9877	0.0002808964061194
5.9887	0.0002808991848652
5.9897	0.0002809019636111
5.9907	0.0002809047423569
5.9917	0.0002809075211027
5.9927	0.0002809102998485
5.9937	0.0002809130785943
5.9947	0.0002809158573401
5.9957	0.0002809186360860
5.9967	0.0002809214148318
5.9977	0.0002809241935776
5.9987	0.0002809269723234
5.9997	0.0002809297510692
6.0007	0.0002809325298151
6.0017	0.0002809353085609
6.0027	0.0002809380873067
6.0037	0.0002809408660525
6.0047	0.0002809436447983
6.0057	0.0002809464235441
6.0067	0.0002809492022900
6.0077	0.0002809519810358
6.0087	0.0002809547597816
6.0097	0.0002809575385274
6.0107	0.0002809603172732
6.0117	0.0002809630960190
6.0127	0.0002809658747649
6.0137	0.0002809686535107
6.0147	0.0002809714322565
6.0157	0.0002809742110023
6.0167	0.0002809769897481
6.0177	0.0002809797684939
6.0187	0.0002809825472398
6.0197	0.0002809853259856
6.0207	0.0002809881047314
6.0217	0.0002809908834772
6.0227	0.0002809936622230
6.0237	0.0002809964409689
6.0247	0.0002809992197147
6.0257	0.0002810019984605
6.0267	0.0002810047772063
6.0277	0.0002810075559521
6.0287	0.0002810103346979
6.0297	0.0002810131134438
6.0307	0.0002810158921896
6.0317	0.0002810186709354
6.0327	0.0002810214496812
6.0337	0.0002810242284270
6.0347	0.0002810270071728
6.0357	0.0002810297859187
6.0367	0.0002810325646645
6.0377	0.0002810353434103
6.0387	0.0002810381221561
6.0397	0.0002810409009019
6.0407	0.0002810436796478
6.0417	0.0002810464583936
6.0427	0.0002810492371394
6.0437	0.0002810520158852
6.0447	0.0002810547946310
6.0457	0.0002810575733768
6.0467	0.0002810603521227
6.0477	0.0002810631308685
6.0487	0.0002810659096143
6.0497	0.0002810686883601
6.0507	0.0002810714671059
6.0517	0.0002810742458517
6.0527	0.0002810770245976
6.0537	0.0002810798033434
6.0547	0.0002810825820892
6.0557	0.0002810853608350
6.0567	0.0002810881395808
6.0577	0.0002810909183267
6.0587	0.0002810936970725
6.0597	0.0002810964758183
6.0607	0.0002810992545641
6.0617	0.0002811020333099
6.0627	0.0002811048120557
6.0637	0.0002811075908016
6.0647	0.0002811103695474
6.0657	0.0002811131482932
6.0667	0.0002811159270390
6.0677	0.0002811187057848
6.0687	0.0002811214845306
6.0697	0.0002811242632765
6.0707	0.0002811270420223
6.0717	0.0002811298207681
6.0727	0.0002811325995139
6.0737	0.0002811353782597
6.0747	0.0002811381570056
6.0757	0.0002811409357514
6.0767	0.0002811437144972
6.0777	0.0002811464932430
6.0787	0.0002811492719888
6.0797	0.0002811520507346
6.0807	0.0002811548294805
6.0817	0.0002811576082263
6.0827	0.0002811603869721
6.0837	0.0002811631657179
6.0847	0.0002811659444637
6.0857	0.0002811687232095
6.0867	0.0002811715019554
6.0877	0.0002811742807012
6.0887	0.0002811770594470
6.0897	0.0002811798381928
6.0907	0.0002811826169386
6.0917	0.0002811853956845
6.0927	0.0002811881744303
6.0937	0.0002811909531761
6.0947	0.0002811937319219
6.0957	0.0002811965106677
6.0967	0.0002811992894135
6.0977	0.0002812020681594
6.0987	0.0002812048469052
6.0997	0.0002812076256510
6.1007	0.0002812104043968
6.1017	0.0002812131831426
6.1027	0.0002812159618884
6.1037	0.0002812187406343
6.1047	0.0002812215193801
6.1057	0.0002812242981259
6.1067	0.0002812270768717
6.1077	0.0002812298556175
6.1087	0.0002812326343634
6.1097	0.0002812354131092
6.1107	0.0002812381918550
6.1117	0.0002812409706008
6.1127	0.0002812437493466
6.1137	0.0002812465280924
6.1147	0.0002812493068383
6.1157	0.0002812520855841
6.1167	0.0002812548643299
6.1177	0.0002812576430757
6.1187	0.0002812604218215
6.1197	0.0002812632005673
6.1207	0.0002812659793132
6.1217	0.0002812687580590
6.1227	0.0002812715368048
6.1237	0.0002812743155506
6.1247	0.0002812770942964
6.1257	0.0002812798730423
6.1267	0.0002812826517881
6.1277	0.0002812854305339
6.1287	0.0002812882092797
6.1297	0.0002812909880255
6.1307	0.0002812937667713
6.1317	0.0002812965455172
6.1327	0.0002812993242630
6.1337	0.0002813021030088
6.1347	0.0002813048817546
6.1357	0.0002813076605004
6.1367	0.0002813104392462
6.1377	0.0002813132179921
6.1387	0.0002813159967379
6.1397	0.0002813187754837
6.1407	0.0002813215542295
6.1417	0.0002813243329753
6.1427	0.0002813271117212
6.1437	0.0002813298904670
6.1447	0.0002813326692128
6.1457	0.0002813354479586
6.1467	0.0002813382267044
6.1477	0.0002813410054502
6.1487	0.0002813437841961
6.1497	0.0002813465629419
6.1507	0.0002813493416877
6.1517	0.0002813521204335
6.1527	0.0002813548991793
6.1537	0.0002813576779251
6.1547	0.0002813604566710
6.1557	0.0002813632354168
6.1567	0.0002813660141626
6.1577	0.0002813687929084
6.1587	0.0002813715716542
6.1597	0.0002813743504001
6.1607	0.0002813771291459
6.1617	0.0002813799078917
6.1627	0.0002813826866375
6.1637	0.0002813854653833
6.1647	0.0002813882441291
6.1657	0.0002813910228750
6.1667	0.0002813938016208
6.1677	0.0002813965803666
6.1687	0.0002813993591124
6.1697	0.0002814021378582
6.1707	0.0002814049166040
6.1717	0.0002814076953499
6.1727	0.0002814104740957
6.1737	0.0002814132528415
6.1747	0.0002814160315873
6.1757	0.0002814188103331
6.1767	0.0002814215890790
6.1777	0.0002814243678248
6.1787	0.0002814271465706
6.1797	0.0002814299253164
6.1807	0.0002814327040622
6.1817	0.0002814354828080
6.1827	0.0002814382615539
6.1837	0.0002814410402997
6.1847	0.0002814438190455
6.1857	0.0002814465977913
6.1867	0.0002814493765371
6.1877	0.0002814521552829
6.1887	0.0002814549340288
6.1897	0.0002814577127746
6.1907	0.0002814604915204
6.1917	0.0002814632702662
6.1927	0.0002814660490120
6.1937	0.0002814688277579
6.1947	0.0002814716065037
6.1957	0.0002814743852495
6.1967	0.0002814771639953
6.1977	0.0002814799427411
6.1987	0.0002814827214869
6.1997	0.0002814855002328
6.2007	0.0002814882789786
6.2017	0.0002814910577244
6.2027	0.0002814938364702
6.2037	0.0002814966152160
6.2047	0.0002814993939618
6.2057	0.0002815021727077
6.2067	0.0002815049514535
6.2077	0.0002815077301993
6.2087	0.0002815105089451
6.2097	0.0002815132876909
6.2107	0.0002815160664368
6.2117	0.0002815188451826
6.2127	0.0002815216239284
6.2137	0.0002815244026742
6.2147	0.0002815271814200
6.2157	0.0002815299601658
6.2167	0.0002815327389117
6.2177	0.0002815355176575
6.2187	0.0002815382964033
6.2197	0.0002815410751491
6.2207	0.0002815438538949
6.2217	0.0002815466326407
6.2227	0.0002815494113866
6.2237	0.0002815521901324
6.2247	0.0002815549688782
6.2257	0.0002815577476240
6.2267	0.0002815605263698
6.2277	0.0002815633051157
6.2287	0.0002815660838615
6.2297	0.0002815688626073
6.2307	0.0002815716413531
6.2317	0.0002815744200989
6.2327	0.0002815771988447
6.2337	0.0002815799775906
6.2347	0.0002815827563364
6.2357	0.0002815855350822
6.2367	0.0002815883138280
6.2377	0.0002815910925738
6.2387	0.0002815938713196
6.2397	0.0002815966500655
6.2407	0.0002815994288113
6.2417	0.0002816022075571
6.2427	0.0002816049863029
6.2437	0.0002816077650487
6.2447	0.0002816105437945
6.2457	0.0002816133225404
6.2467	0.0002816161012862
6.2477	0.0002816188800320
6.2487	0.0002816216587778
6.2497	0.0002816244375236
6.2507	0.0002816272162695
6.2517	0.0002816299950153
6.2527	0.0002816327737611
6.2537	0.0002816355525069
6.2547	0.0002816383312527
6.2557	0.0002816411099985
6.2567	0.0002816438887444
6.2577	0.0002816466674902
6.2587	0.0002816494462360
6.2597	0.0002816522249818
6.2607	0.0002816550037276
6.2617	0.0002816577824734
6.2627	0.0002816605612193
6.2637	0.0002816633399651
6.2647	0.0002816661187109
6.2657	0.0002816688974567
6.2667	0.0002816716762025
6.2677	0.0002816744549484
6.2687	0.0002816772336942
6.2697	0.0002816800124400
6.2707	0.0002816827911858
6.2717	0.0002816855699316
6.2727	0.0002816883486774
6.2737	0.0002816911274233
6.2747	0.0002816939061691
6.2757	0.0002816966849149
6.2767	0.0002816994636607
6.2777	0.0002817022424065
6.2787	0.0002817050211523
6.2797	0.0002817077998982
6.2807	0.0002817105786440
6.2817	0.0002817133573898
6.2827	0.0002817161361356
6.2837	0.0002817189148814
6.2847	0.0002817216936273
6.2857	0.0002817244723731
6.2867	0.0002817272511189
6.2877	0.0002817300298647
6.2887	0.0002817328086105
6.2897	0.0002817355873563
6.2907	0.0002817383661022
6.2917	0.0002817411448480
6.2927	0.0002817439235938
6.2937	0.0002817467023396
6.2947	0.0002817494810854
6.2957	0.0002817522598312
6.2967	0.0002817550385771
6.2977	0.0002817578173229
6.2987	0.0002817605960687
6.2997	0.0002817633748145
6.3007	0.0002817661535603
6.3017	0.0002817689323062
6.3027	0.0002817717110520
6.3037	0.0002817744897978
6.3047	0.0002817772685436
6.3057	0.0002817800472894
6.3067	0.0002817828260352
6.3077	0.0002817856047811
6.3087	0.0002817883835269
6.3097	0.0002817911622727
6.3107	0.0002817939410185
6.3117	0.0002817967197643
6.3127	0.0002817994985101
6.3137	0.0002818022772560
6.3147	0.0002818050560018
6.3157	0.0002818078347476
6.3167	0.0002818106134934
6.3177	0.0002818133922392
6.3187	0.0002818161709851
6.3197	0.0002818189497309
6.3207	0.0002818217284767
6.3217	0.0002818245072225
6.3227	0.0002818272859683
6.3237	0.0002818300647141
6.3247	0.0002818328434600
6.3257	0.0002818356222058
6.3267	0.0002818384009516
6.3277	0.0002818411796974
6.3287	0.0002818439584432
6.3297	0.0002818467371890
6.3307	0.0002818495159349
6.3317	0.0002818522946807
6.3327	0.0002818550734265
6.3337	0.0002818578521723
6.3347	0.0002818606309181
6.3357	0.0002818634096640
6.3367	0.0002818661884098
6.3377	0.0002818689671556
6.3387	0.0002818717459014
6.3397	0.0002818745246472
6.3407	0.0002818773033930
6.3417	0.0002818800821389
6.3427	0.0002818828608847
6.3437	0.0002818856396305
6.3447	0.0002818884183763
6.3457	0.0002818911971221
6.3467	0.0002818939758679
6.3477	0.0002818967546138
6.3487	0.0002818995333596
6.3497	0.0002819023121054
6.3507	0.0002819050908512
6.3517	0.0002819078695970
6.3527	0.0002819106483429
6.3537	0.0002819134270887
6.3547	0.0002819162058345
6.3557	0.0002819189845803
6.3567	0.0002819217633261
6.3577	0.0002819245420719
6.3587	0.0002819273208178
6.3597	0.0002819300995636
6.3607	0.0002819328783094
6.3617	0.0002819356570552
6.3627	0.0002819384358010
6.3637	0.0002819412145468
6.3647	0.0002819439932927
6.3657	0.0002819467720385
6.3667	0.0002819495507843
6.3677	0.0002819523295301
6.3687	0.0002819551082759
6.3697	0.0002819578870218
6.3707	0.0002819606657676
6.3717	0.0002819634445134
6.3727	0.0002819662232592
6.3737	0.0002819690020050
6.3747	0.0002819717807508
6.3757	0.0002819745594967
6.3767	0.0002819773382425
6.3777	0.0002819801169883
6.3787	0.0002819828957341
6.3797	0.0002819856744799
6.3807	0.0002819884532257
6.3817	0.0002819912319716
6.3827	0.0002819940107174
6.3837	0.0002819967894632
6.3847	0.0002819995682090
6.3857	0.0002820023469548
6.3867	0.0002820051257007
6.3877	0.0002820079044465
6.3887	0.0002820106831923
6.3897	0.0002820134619381
6.3907	0.0002820162406839
6.3917	0.0002820190194297
6.3927	0.0002820217981756
6.3937	0.0002820245769214
6.3947	0.0002820273556672
6.3957	0.0002820301344130
6.3967	0.0002820329131588
6.3977	0.0002820356919046
6.3987	0.0002820384706505
6.3997	0.0002820412493963
6.4007	0.0002820440281421
6.4017	0.0002820468068879
6.4027	0.0002820495856337
6.4037	0.0002820523643796
6.4047	0.0002820551431254
6.4057	0.0002820579218712
6.4067	0.0002820607006170
6.4077	0.0002820634793628
6.4087	0.0002820662581086
6.4097	0.0002820690368545
6.4107	0.0002820718156003
6.4117	0.0002820745943461
6.4127	0.0002820773730919
6.4137	0.0002820801518377
6.4147	0.0002820829305835
6.4157	0.0002820857093294
6.4167	0.0002820884880752
6.4177	0.0002820912668210
6.4187	0.0002820940455668
6.4197	0.0002820968243126
6.4207	0.0002820996030585
6.4217	0.0002821023818043
6.4227	0.0002821051605501
6.4237	0.0002821079392959
6.4247	0.0002821107180417
6.4257	0.0002821134967875
6.4267	0.0002821162755334
6.4277	0.0002821190542792
6.4287	0.0002821218330250
6.4297	0.0002821246117708
6.4307	0.0002821273905166
6.4317	0.0002821301692624
6.4327	0.0002821329480083
6.4337	0.0002821357267541
6.4347	0.0002821385054999
6.4357	0.0002821412842457
6.4367	0.0002821440629915
6.4377	0.0002821468417374
6.4387	0.0002821496204832
6.4397	0.0002821523992290
6.4407	0.0002821551779748
6.4417	0.0002821579567206
6.4427	0.0002821607354664
6.4437	0.0002821635142123
6.4447	0.0002821662929581
6.4457	0.0002821690717039
6.4467	0.0002821718504497
6.4477	0.0002821746291955
6.4487	0.0002821774079413
6.4497	0.0002821801866872
6.4507	0.0002821829654330
6.4517	0.0002821857441788
6.4527	0.0002821885229246
6.4537	0.0002821913016704
6.4547	0.0002821940804163
6.4557	0.0002821968591621
6.4567	0.0002821996379079
6.4577	0.0002822024166537
6.4587	0.0002822051953995
6.4597	0.0002822079741453
6.4607	0.0002822107528912
6.4617	0.0002822135316370
6.4627	0.0002822163103828
6.4637	0.0002822190891286
6.4647	0.0002822218678744
6.4657	0.0002822246466202
6.4667	0.0002822274253661
6.4677	0.0002822302041119
6.4687	0.0002822329828577
6.4697	0.0002822357616035
6.4707	0.0002822385403493
6.4717	0.0002822413190951
6.4727	0.0002822440978410
6.4737	0.0002822468765868
6.4747	0.0002822496553326
6.4757	0.0002822524340784
6.4767	0.0002822552128242
6.4777	0.0002822579915701
6.4787	0.0002822607703159
6.4797	0.0002822635490617
6.4807	0.0002822663278075
6.4817	0.0002822691065533
6.4827	0.0002822718852991
6.4837	0.0002822746640450
6.4847	0.0002822774427908
6.4857	0.0002822802215366
6.4867	0.0002822830002824
6.4877	0.0002822857790282
6.4887	0.0002822885577740
6.4897	0.0002822913365199
6.4907	0.0002822941152657
6.4917	0.0002822968940115
6.4927	0.0002822996727573
6.4937	0.0002823024515031
6.4947	0.0002823052302490
6.4957	0.0002823080089948
6.4967	0.0002823107877406
6.4977	0.0002823135664864
6.4987	0.0002823163452322
6.4997	0.0002823191239780
6.5007	0.0002823219027239
6.5017	0.0002823246814697
6.5027	0.0002823274602155
6.5037	0.0002823302389613
6.5047	0.0002823330177071
6.5057	0.0002823357964529
6.5067	0.0002823385751988
6.5077	0.0002823413539446
6.5087	0.0002823441326904
6.5097	0.0002823469114362
6.5107	0.0002823496901820
6.5117	0.0002823524689279
6.5127	0.0002823552476737
6.5137	0.0002823580264195
6.5147	0.0002823608051653
6.5157	0.0002823635839111
6.5167	0.0002823663626569
6.5177	0.0002823691414028
6.5187	0.0002823719201486
6.5197	0.0002823746988944
6.5207	0.0002823774776402
6.5217	0.0002823802563860
6.5227	0.0002823830351318
6.5237	0.0002823858138777
6.5247	0.0002823885926235
6.5257	0.0002823913713693
6.5267	0.0002823941501151
6.5277	0.0002823969288609
6.5287	0.0002823997076068
6.5297	0.0002824024863526
6.5307	0.0002824052650984
6.5317	0.0002824080438442
6.5327	0.0002824108225900
6.5337	0.0002824136013358
6.5347	0.0002824163800817
6.5357	0.0002824191588275
6.5367	0.0002824219375733
6.5377	0.0002824247163191
6.5387	0.0002824274950649
6.5397	0.0002824302738107
6.5407	0.0002824330525566
6.5417	0.0002824358313024
6.5427	0.0002824386100482
6.5437	0.0002824413887940
6.5447	0.0002824441675398
6.5457	0.0002824469462857
6.5467	0.0002824497250315
6.5477	0.0002824525037773
6.5487	0.0002824552825231
6.5497	0.0002824580612689
6.5507	0.0002824608400147
6.5517	0.0002824636187606
6.5527	0.0002824663975064
6.5537	0.0002824691762522
6.5547	0.0002824719549980
6.5557	0.0002824747337438
6.5567	0.0002824775124896
6.5577	0.0002824802912355
6.5587	0.0002824830699813
6.5597	0.0002824858487271
6.5607	0.0002824886274729
6.5617	0.0002824914062187
6.5627	0.0002824941849646
6.5637	0.0002824969637104
6.5647	0.0002824997424562
6.5657	0.0002825025212020
6.5667	0.0002825052999478
6.5677	0.0002825080786936
6.5687	0.0002825108574395
6.5697	0.0002825136361853
6.5707	0.0002825164149311
6.5717	0.0002825191936769
6.5727	0.0002825219724227
6.5737	0.0002825247511685
6.5747	0.0002825275299144
6.5757	0.0002825303086602
6.5767	0.0002825330874060
6.5777	0.0002825358661518
6.5787	0.0002825386448976
6.5797	0.0002825414236435
6.5807	0.0002825442023893
6.5817	0.0002825469811351
6.5827	0.0002825497598809
6.5837	0.0002825525386267
6.5847	0.0002825553173725
6.5857	0.0002825580961184
6.5867	0.0002825608748642
6.5877	0.0002825636536100
6.5887	0.0002825664323558
6.5897	0.0002825692111016
6.5907	0.0002825719898474
6.5917	0.0002825747685933
6.5927	0.0002825775473391
6.5937	0.0002825803260849
6.5947	0.0002825831048307
6.5957	0.0002825858835765
6.5967	0.0002825886623224
6.5977	0.0002825914410682
6.5987	0.0002825942198140
6.5997	0.0002825969985598
6.6007	0.0002825997773056
6.6017	0.0002826025560514
6.6027	0.0002826053347973
6.6037	0.0002826081135431
6.6047	0.0002826108922889
6.6057	0.0002826136710347
6.6067	0.0002826164497805
6.6077	0.0002826192285263
6.6087	0.0002826220072722
6.6097	0.0002826247860180
6.6107	0.0002826275647638
6.6117	0.0002826303435096
6.6127	0.0002826331222554
6.6137	0.0002826359010013
6.6147	0.0002826386797471
6.6157	0.0002826414584929
6.6167	0.0002826442372387
6.6177	0.0002826470159845
6.6187	0.0002826497947303
6.6197	0.0002826525734762
6.6207	0.0002826553522220
6.6217	0.0002826581309678
6.6227	0.0002826609097136
6.6237	0.0002826636884594
6.6247	0.0002826664672052
6.6257	0.0002826692459511
6.6267	0.0002826720246969
6.6277	0.0002826748034427
6.6287	0.0002826775821885
6.6297	0.0002826803609343
6.6307	0.0002826831396802
6.6317	0.0002826859184260
6.6327	0.0002826886971718
6.6337	0.0002826914759176
6.6347	0.0002826942546634
6.6357	0.0002826970334092
6.6367	0.0002826998121551
6.6377	0.0002827025909009
6.6387	0.0002827053696467
6.6397	0.0002827081483925
6.6407	0.0002827109271383
6.6417	0.0002827137058841
6.6427	0.0002827164846300
6.6437	0.0002827192633758
6.6447	0.0002827220421216
6.6457	0.0002827248208674
6.6467	0.0002827275996132
6.6477	0.0002827303783591
6.6487	0.0002827331571049
6.6497	0.0002827359358507
6.6507	0.0002827387145965
6.6517	0.0002827414933423
6.6527	0.0002827442720881
6.6537	0.0002827470508340
6.6547	0.0002827498295798
6.6557	0.0002827526083256
6.6567	0.0002827553870714
6.6577	0.0002827581658172
6.6587	0.0002827609445630
6.6597	0.0002827637233089
6.6607	0.0002827665020547
6.6617	0.0002827692808005
6.6627	0.0002827720595463
6.6637	0.0002827748382921
6.6647	0.0002827776170380
6.6657	0.0002827803957838
6.6667	0.0002827831745296
6.6677	0.0002827859532754
6.6687	0.0002827887320212
6.6697	0.0002827915107670
6.6707	0.0002827942895129
6.6717	0.0002827970682587
6.6727	0.0002827998470045
6.6737	0.0002828026257503
6.6747	0.0002828054044961
6.6757	0.0002828081832419
6.6767	0.0002828109619878
6.6777	0.0002828137407336
6.6787	0.0002828165194794
6.6797	0.0002828192982252
6.6807	0.0002828220769710
6.6817	0.0002828248557169
6.6827	0.0002828276344627
6.6837	0.0002828304132085
6.6847	0.0002828331919543
6.6857	0.0002828359707001
6.6867	0.0002828387494459
6.6877	0.0002828415281918
6.6887	0.0002828443069376
6.6897	0.0002828470856834
6.6907	0.0002828498644292
6.6917	0.0002828526431750
6.6927	0.0002828554219208
6.6937	0.0002828582006667
6.6947	0.0002828609794125
6.6957	0.0002828637581583
6.6967	0.0002828665369041
6.6977	0.0002828693156499
6.6987	0.0002828720943957
6.6997	0.0002828748731416
6.7007	0.0002828776518874
6.7017	0.0002828804306332
6.7027	0.0002828832093790
6.7037	0.0002828859881248
6.7047	0.0002828887668707
6.7057	0.0002828915456165
6.7067	0.0002828943243623
6.7077	0.0002828971031081
6.7087	0.0002828998818539
6.7097	0.0002829026605997
6.7107	0.0002829054393456
6.7117	0.0002829082180914
6.7127	0.0002829109968372
6.7137	0.0002829137755830
6.7147	0.0002829165543288
6.7157	0.0002829193330746
6.7167	0.0002829221118205
6.7177	0.0002829248905663
6.7187	0.0002829276693121
6.7197	0.0002829304480579
6.7207	0.0002829332268037
6.7217	0.0002829360055496
6.7227	0.0002829387842954
6.7237	0.0002829415630412
6.7247	0.0002829443417870
6.7257	0.0002829471205328
6.7267	0.0002829498992786
6.7277	0.0002829526780245
6.7287	0.0002829554567703
6.7297	0.0002829582355161
6.7307	0.0002829610142619
6.7317	0.0002829637930077
6.7327	0.0002829665717535
6.7337	0.0002829693504994
6.7347	0.0002829721292452
6.7357	0.0002829749079910
6.7367	0.0002829776867368
6.7377	0.0002829804654826
6.7387	0.0002829832442285
6.7397	0.0002829860229743
6.7407	0.0002829888017201
6.7417	0.0002829915804659
6.7427	0.0002829943592117
6.7437	0.0002829971379575
6.7447	0.0002829999167034
6.7457	0.0002830026954492
6.7467	0.0002830054741950
6.7477	0.0002830082529408
6.7487	0.0002830110316866
6.7497	0.0002830138104324
6.7507	0.0002830165891783
6.7517	0.0002830193679241
6.7527	0.0002830221466699
6.7537	0.0002830249254157
6.7547	0.0002830277041615
6.7557	0.0002830304829074
6.7567	0.0002830332616532
6.7577	0.0002830360403990
6.7587	0.0002830388191448
6.7597	0.0002830415978906
6.7607	0.0002830443766364
6.7617	0.0002830471553823
6.7627	0.0002830499341281
6.7637	0.0002830527128739
6.7647	0.0002830554916197
6.7657	0.0002830582703655
6.7667	0.0002830610491113
6.7677	0.0002830638278572
6.7687	0.0002830666066030
6.7697	0.0002830693853488
6.7707	0.0002830721640946
6.7717	0.0002830749428404
6.7727	0.0002830777215863
6.7737	0.0002830805003321
6.7747	0.0002830832790779
6.7757	0.0002830860578237
6.7767	0.0002830888365695
6.7777	0.0002830916153153
6.7787	0.0002830943940612
6.7797	0.0002830971728070
6.7807	0.0002830999515528
6.7817	0.0002831027302986
6.7827	0.0002831055090444
6.7837	0.0002831082877902
6.7847	0.0002831110665361
6.7857	0.0002831138452819
6.7867	0.0002831166240277
6.7877	0.0002831194027735
6.7887	0.0002831221815193
6.7897	0.0002831249602652
6.7907	0.0002831277390110
6.7917	0.0002831305177568
6.7927	0.0002831332965026
6.7937	0.0002831360752484
6.7947	0.0002831388539942
6.7957	0.0002831416327401
6.7967	0.0002831444114859
6.7977	0.0002831471902317
6.7987	0.0002831499689775
6.7997	0.0002831527477233
6.8007	0.0002831555264691
6.8017	0.0002831583052150
6.8027	0.0002831610839608
6.8037	0.0002831638627066
6.8047	0.0002831666414524
6.8057	0.0002831694201982
6.8067	0.0002831721989441
6.8077	0.0002831749776899
6.8087	0.0002831777564357
6.8097	0.0002831805351815
6.8107	0.0002831833139273
6.8117	0.0002831860926731
6.8127	0.0002831888714190
6.8137	0.0002831916501648
6.8147	0.0002831944289106
6.8157	0.0002831972076564
6.8167	0.0002831999864022
6.8177	0.0002832027651480
6.8187	0.0002832055438939
6.8197	0.0002832083226397
6.8207	0.0002832111013855
6.8217	0.0002832138801313
6.8227	0.0002832166588771
6.8237	0.0002832194376230
6.8247	0.0002832222163688
6.8257	0.0002832249951146
6.8267	0.0002832277738604
6.8277	0.0002832305526062
6.8287	0.0002832333313520
6.8297	0.0002832361100979
6.8307	0.0002832388888437
6.8317	0.0002832416675895
6.8327	0.0002832444463353
6.8337	0.0002832472250811
6.8347	0.0002832500038269
6.8357	0.0002832527825728
6.8367	0.0002832555613186
6.8377	0.0002832583400644
6.8387	0.0002832611188102
6.8397	0.0002832638975560
6.8407	0.0002832666763019
6.8417	0.0002832694550477
6.8427	0.0002832722337935
6.8437	0.0002832750125393
6.8447	0.0002832777912851
6.8457	0.0002832805700309
6.8467	0.0002832833487768
6.8477	0.0002832861275226
6.8487	0.0002832889062684
6.8497	0.0002832916850142
6.8507	0.0002832944637600
6.8517	0.0002832972425058
6.8527	0.0002833000212517
6.8537	0.0002833027999975
6.8547	0.0002833055787433
6.8557	0.0002833083574891
6.8567	0.0002833111362349
6.8577	0.0002833139149808
6.8587	0.0002833166937266
6.8597	0.0002833194724724
6.8607	0.0002833222512182
6.8617	0.0002833250299640
6.8627	0.0002833278087098
6.8637	0.0002833305874557
6.8647	0.0002833333662015
6.8657	0.0002833361449473
6.8667	0.0002833389236931
6.8677	0.0002833417024389
6.8687	0.0002833444811847
6.8697	0.0002833472599306
6.8707	0.0002833500386764
6.8717	0.0002833528174222
6.8727	0.0002833555961680
6.8737	0.0002833583749138
6.8747	0.0002833611536597
6.8757	0.0002833639324055
6.8767	0.0002833667111513
6.8777	0.0002833694898971
6.8787	0.0002833722686429
6.8797	0.0002833750473887
6.8807	0.0002833778261346
6.8817	0.0002833806048804
6.8827	0.0002833833836262
6.8837	0.0002833861623720
6.8847	0.0002833889411178
6.8857	0.0002833917198636
6.8867	0.0002833944986095
6.8877	0.0002833972773553
6.8887	0.0002834000561011
6.8897	0.0002834028348469
6.8907	0.0002834056135927
6.8917	0.0002834083923386
6.8927	0.0002834111710844
6.8937	0.0002834139498302
6.8947	0.0002834167285760
6.8957	0.0002834195073218
6.8967	0.0002834222860676
6.8977	0.0002834250648135
6.8987	0.0002834278435593
6.8997	0.0002834306223051
6.9007	0.0002834334010509
6.9017	0.0002834361797967
6.9027	0.0002834389585425
6.9037	0.0002834417372884
6.9047	0.0002834445160342
6.9057	0.0002834472947800
6.9067	0.0002834500735258
6.9077	0.0002834528522716
6.9087	0.0002834556310175
6.9097	0.0002834584097633
6.9107	0.0002834611885091
6.9117	0.0002834639672549
6.9127	0.0002834667460007
6.9137	0.0002834695247465
6.9147	0.0002834723034924
6.9157	0.0002834750822382
6.9167	0.0002834778609840
6.9177	0.0002834806397298
6.9187	0.0002834834184756
6.9197	0.0002834861972214
6.9207	0.0002834889759673
6.9217	0.0002834917547131
6.9227	0.0002834945334589
6.9237	0.0002834973122047
6.9247	0.0002835000909505
6.9257	0.0002835028696963
6.9267	0.0002835056484422
6.9277	0.0002835084271880
6.9287	0.0002835112059338
6.9297	0.0002835139846796
6.9307	0.0002835167634254
6.9317	0.0002835195421713
6.9327	0.0002835223209171
6.9337	0.0002835250996629
6.9347	0.0002835278784087
6.9357	0.0002835306571545
6.9367	0.0002835334359003
6.9377	0.0002835362146462
6.9387	0.0002835389933920
6.9397	0.0002835417721378
6.9407	0.0002835445508836
6.9417	0.0002835473296294
6.9427	0.0002835501083752
6.9437	0.0002835528871211
6.9447	0.0002835556658669
6.9457	0.0002835584446127
6.9467	0.0002835612233585
6.9477	0.0002835640021043
6.9487	0.0002835667808502
6.9497	0.0002835695595960
6.9507	0.0002835723383418
6.9517	0.0002835751170876
6.9527	0.0002835778958334
6.9537	0.0002835806745792
6.9547	0.0002835834533251
6.9557	0.0002835862320709
6.9567	0.0002835890108167
6.9577	0.0002835917895625
6.9587	0.0002835945683083
6.9597	0.0002835973470541
6.9607	0.0002836001258000
6.9617	0.0002836029045458
6.9627	0.0002836056832916
6.9637	0.0002836084620374
6.9647	0.0002836112407832
6.9657	0.0002836140195291
6.9667	0.0002836167982749
6.9677	0.0002836195770207
6.9687	0.0002836223557665
6.9697	0.0002836251345123
6.9707	0.0002836279132581
6.9717	0.0002836306920040
6.9727	0.0002836334707498
6.9737	0.0002836362494956
6.9747	0.0002836390282414
6.9757	0.0002836418069872
6.9767	0.0002836445857330
6.9777	0.0002836473644789
6.9787	0.0002836501432247
6.9797	0.0002836529219705
6.9807	0.0002836557007163
6.9817	0.0002836584794621
6.9827	0.0002836612582080
6.9837	0.0002836640369538
6.9847	0.0002836668156996
6.9857	0.0002836695944454
6.9867	0.0002836723731912
6.9877	0.0002836751519370
6.9887	0.0002836779306829
6.9897	0.0002836807094287
6.9907	0.0002836834881745
6.9917	0.0002836862669203
6.9927	0.0002836890456661
6.9937	0.0002836918244119
6.9947	0.0002836946031578
6.9957	0.0002836973819036
6.9967	0.0002837001606494
6.9977	0.0002837029393952
6.9987	0.0002837057181410
6.9997	0.0002837084968869
7.0007	0.0002837112756327
7.0017	0.0002837140543785
7.0027	0.0002837168331243
7.0037	0.0002837196118701
7.0047	0.0002837223906159
7.0057	0.0002837251693618
7.0067	0.0002837279481076
7.0077	0.0002837307268534
7.0087	0.0002837335055992
7.0097	0.0002837362843450
7.0107	0.0002837390630908
7.0117	0.0002837418418367
7.0127	0.0002837446205825
7.0137	0.0002837473993283
7.0147	0.0002837501780741
7.0157	0.0002837529568199
7.0167	0.0002837557355658
7.0177	0.0002837585143116
7.0187	0.0002837612930574
7.0197	0.0002837640718032
7.0207	0.0002837668505490
7.0217	0.0002837696292948
7.0227	0.0002837724080407
7.0237	0.0002837751867865
7.0247	0.0002837779655323
7.0257	0.0002837807442781
7.0267	0.0002837835230239
7.0277	0.0002837863017697
7.0287	0.0002837890805156
7.0297	0.0002837918592614
7.0307	0.0002837946380072
7.0317	0.0002837974167530
7.0327	0.0002838001954988
7.0337	0.0002838029742447
7.0347	0.0002838057529905
7.0357	0.0002838085317363
7.0367	0.0002838113104821
7.0377	0.0002838140892279
7.0387	0.0002838168679737
7.0397	0.0002838196467196
7.0407	0.0002838224254654
7.0417	0.0002838252042112
7.0427	0.0002838279829570
7.0437	0.0002838307617028
7.0447	0.0002838335404486
7.0457	0.0002838363191945
7.0467	0.0002838390979403
7.0477	0.0002838418766861
7.0487	0.0002838446554319
7.0497	0.0002838474341777
7.0507	0.0002838502129236
7.0517	0.0002838529916694
7.0527	0.0002838557704152
7.0537	0.0002838585491610
7.0547	0.0002838613279068
7.0557	0.0002838641066526
7.0567	0.0002838668853985
7.0577	0.0002838696641443
7.0587	0.0002838724428901
7.0597	0.0002838752216359
7.0607	0.0002838780003817
7.0617	0.0002838807791275
7.0627	0.0002838835578734
7.0637	0.0002838863366192
7.0647	0.0002838891153650
7.0657	0.0002838918941108
7.0667	0.0002838946728566
7.0677	0.0002838974516025
7.0687	0.0002839002303483
7.0697	0.0002839030090941
7.0707	0.0002839057878399
7.0717	0.0002839085665857
7.0727	0.0002839113453315
7.0737	0.0002839141240774
7.0747	0.0002839169028232
7.0757	0.0002839196815690
7.0767	0.0002839224603148
7.0777	0.0002839252390606
7.0787	0.0002839280178064
7.0797	0.0002839307965523
7.0807	0.0002839335752981
7.0817	0.0002839363540439
7.0827	0.0002839391327897
7.0837	0.0002839419115355
7.0847	0.0002839446902814
7.0857	0.0002839474690272
7.0867	0.0002839502477730
7.0877	0.0002839530265188
7.0887	0.0002839558052646
7.0897	0.0002839585840104
7.0907	0.0002839613627563
7.0917	0.0002839641415021
7.0927	0.0002839669202479
7.0937	0.0002839696989937
7.0947	0.0002839724777395
7.0957	0.0002839752564853
7.0967	0.0002839780352312
7.0977	0.0002839808139770
7.0987	0.0002839835927228
7.0997	0.0002839863714686
7.1007	0.0002839891502144
7.1017	0.0002839919289603
7.1027	0.0002839947077061
7.1037	0.0002839974864519
7.1047	0.0002840002651977
7.1057	0.0002840030439435
7.1067	0.0002840058226893
7.1077	0.0002840086014352
7.1087	0.0002840113801810
7.1097	0.0002840141589268
7.1107	0.0002840169376726
7.1117	0.0002840197164184
7.1127	0.0002840224951642
7.1137	0.0002840252739101
7.1147	0.0002840280526559
7.1157	0.0002840308314017
7.1167	0.0002840336101475
7.1177	0.0002840363888933
7.1187	0.0002840391676392
7.1197	0.0002840419463850
7.1207	0.0002840447251308
7.1217	0.0002840475038766
7.1227	0.0002840502826224
7.1237	0.0002840530613682
7.1247	0.0002840558401141
7.1257	0.0002840586188599
7.1267	0.0002840613976057
7.1277	0.0002840641763515
7.1287	0.0002840669550973
7.1297	0.0002840697338431
7.1307	0.0002840725125890
7.1317	0.0002840752913348
7.1327	0.0002840780700806
7.1337	0.0002840808488264
7.1347	0.0002840836275722
7.1357	0.0002840864063181
7.1367	0.0002840891850639
7.1377	0.0002840919638097
7.1387	0.0002840947425555
7.1397	0.0002840975213013
7.1407	0.0002841003000471
7.1417	0.0002841030787930
7.1427	0.0002841058575388
7.1437	0.0002841086362846
7.1447	0.0002841114150304
7.1457	0.0002841141937762
7.1467	0.0002841169725220
7.1477	0.0002841197512679
7.1487	0.0002841225300137
7.1497	0.0002841253087595
7.1507	0.0002841280875053
7.1517	0.0002841308662511
7.1527	0.0002841336449969
7.1537	0.0002841364237428
7.1547	0.0002841392024886
7.1557	0.0002841419812344
7.1567	0.0002841447599802
7.1577	0.0002841475387260
7.1587	0.0002841503174719
7.1597	0.0002841530962177
7.1607	0.0002841558749635
7.1617	0.0002841586537093
7.1627	0.0002841614324551
7.1637	0.0002841642112009
7.1647	0.0002841669899468
7.1657	0.0002841697686926
7.1667	0.0002841725474384
7.1677	0.0002841753261842
7.1687	0.0002841781049300
7.1697	0.0002841808836758
7.1707	0.0002841836624217
7.1717	0.0002841864411675
7.1727	0.0002841892199133
7.1737	0.0002841919986591
7.1747	0.0002841947774049
7.1757	0.0002841975561508
7.1767	0.0002842003348966
7.1777	0.0002842031136424
7.1787	0.0002842058923882
7.1797	0.0002842086711340
7.1807	0.0002842114498798
7.1817	0.0002842142286257
7.1827	0.0002842170073715
7.1837	0.0002842197861173
7.1847	0.0002842225648631
7.1857	0.0002842253436089
7.1867	0.0002842281223547
7.1877	0.0002842309011006
7.1887	0.0002842336798464
7.1897	0.0002842364585922
7.1907	0.0002842392373380
7.1917	0.0002842420160838
7.1927	0.0002842447948297
7.1937	0.0002842475735755
7.1947	0.0002842503523213
7.1957	0.0002842531310671
7.1967	0.0002842559098129
7.1977	0.0002842586885587
7.1987	0.0002842614673046
7.1997	0.0002842642460504
7.2007	0.0002842670247962
7.2017	0.0002842698035420
7.2027	0.0002842725822878
7.2037	0.0002842753610336
7.2047	0.0002842781397795
7.2057	0.0002842809185253
7.2067	0.0002842836972711
7.2077	0.0002842864760169
7.2087	0.0002842892547627
7.2097	0.0002842920335086
7.2107	0.0002842948122544
7.2117	0.0002842975910002
7.2127	0.0002843003697460
7.2137	0.0002843031484918
7.2147	0.0002843059272376
7.2157	0.0002843087059835
7.2167	0.0002843114847293
7.2177	0.0002843142634751
7.2187	0.0002843170422209
7.2197	0.0002843198209667
7.2207	0.0002843225997125
7.2217	0.0002843253784584
7.2227	0.0002843281572042
7.2237	0.0002843309359500
7.2247	0.0002843337146958
7.2257	0.0002843364934416
7.2267	0.0002843392721875
7.2277	0.0002843420509333
7.2287	0.0002843448296791
7.2297	0.0002843476084249
7.2307	0.0002843503871707
7.2317	0.0002843531659165
7.2327	0.0002843559446624
7.2337	0.0002843587234082
7.2347	0.0002843615021540
7.2357	0.0002843642808998
7.2367	0.0002843670596456
7.2377	0.0002843698383914
7.2387	0.0002843726171373
7.2397	0.0002843753958831
7.2407	0.0002843781746289
7.2417	0.0002843809533747
7.2427	0.0002843837321205
7.2437	0.0002843865108664
7.2447	0.0002843892896122
7.2457	0.0002843920683580
7.2467	0.0002843948471038
7.2477	0.0002843976258496
7.2487	0.0002844004045954
7.2497	0.0002844031833413
7.2507	0.0002844059620871
7.2517	0.0002844087408329
7.2527	0.0002844115195787
7.2537	0.0002844142983245
7.2547	0.0002844170770703
7.2557	0.0002844198558162
7.2567	0.0002844226345620
7.2577	0.0002844254133078
7.2587	0.0002844281920536
7.2597	0.0002844309707994
7.2607	0.0002844337495453
7.2617	0.0002844365282911
7.2627	0.0002844393070369
7.2637	0.0002844420857827
7.2647	0.0002844448645285
7.2657	0.0002844476432743
7.2667	0.0002844504220202
7.2677	0.0002844532007660
7.2687	0.0002844559795118
7.2697	0.0002844587582576
7.2707	0.0002844615370034
7.2717	0.0002844643157492
7.2727	0.0002844689953620
7.2737	0.0002844745528537
7.2747	0.0002844801103453
7.2757	0.0002844856678369
7.2767	0.0002844912253286
7.2777	0.0002844967828202
7.2787	0.0002845023403118
7.2797	0.0002845078978035
7.2807	0.0002845134552951
7.2817	0.0002845190127867
7.2827	0.0002845245702784
7.2837	0.0002845301277700
7.2847	0.0002845356852616
7.2857	0.0002845412427533
7.2867	0.0002845468002449
7.2877	0.0002845523577365
7.2887	0.0002845579152282
7.2897	0.0002845634727198
7.2907	0.0002845690302115
7.2917	0.0002845745877031
7.2927	0.0002845801451947
7.2937	0.0002845857026864
7.2947	0.0002845912601780
7.2957	0.0002845968176696
7.2967	0.0002846023751613
7.2977	0.0002846079326529
7.2987	0.0002846134901445
7.2997	0.0002846190476362
7.3007	0.0002846246051278
7.3017	0.0002846301626194
7.3027	0.0002846357201111
7.3037	0.0002846412776027
7.3047	0.0002846468350943
7.3057	0.0002846523925860
7.3067	0.0002846579500776
7.3077	0.0002846635075693
7.3087	0.0002846690650609
7.3097	0.0002846746225525
7.3107	0.0002846801800442
7.3117	0.0002846857375358
7.3127	0.0002846912950274
7.3137	0.0002846968525191
7.3147	0.0002847024100107
7.3157	0.0002847079675023
7.3167	0.0002847135249940
7.3177	0.0002847190824856
7.3187	0.0002847246399772
7.3197	0.0002847301974689
7.3207	0.0002847357549605
7.3217	0.0002847413124521
7.3227	0.0002847468699438
7.3237	0.0002847524274354
7.3247	0.0002847579849270
7.3257	0.0002847635424187
7.3267	0.0002847690999103
7.3277	0.0002847746574020
7.3287	0.0002847802148936
7.3297	0.0002847857723852
7.3307	0.0002847913298769
7.3317	0.0002847968873685
7.3327	0.0002848024448601
7.3337	0.0002848080023518
7.3347	0.0002848135598434
7.3357	0.0002848191173350
7.3367	0.0002848246748267
7.3377	0.0002848302323183
7.3387	0.0002848357898099
7.3397	0.0002848413473016
7.3407	0.0002848469047932
7.3417	0.0002848524622848
7.3427	0.0002848580197765
7.3437	0.0002848635772681
7.3447	0.0002848691347598
7.3457	0.0002848746922514
7.3467	0.0002848802497430
7.3477	0.0002848858072347
7.3487	0.0002848913647263
7.3497	0.0002848969222179
7.3507	0.0002849024797096
7.3517	0.0002849080372012
7.3527	0.0002849135946928
7.3537	0.0002849191521845
7.3547	0.0002849247096761
7.3557	0.0002849302671677
7.3567	0.0002849358246594
7.3577	0.0002849413821510
7.3587	0.0002849469396426
7.3597	0.0002849524971343
7.3607	0.0002849580546259
7.3617	0.0002849636121176
7.3627	0.0002849691696092
7.3637	0.0002849747271008
7.3647	0.0002849802845925
7.3657	0.0002849858420841
7.3667	0.0002849913995757
7.3677	0.0002849969570674
7.3687	0.0002850025145590
7.3697	0.0002850080720506
7.3707	0.0002850136295423
7.3717	0.0002850191870339
7.3727	0.0002850247445255
7.3737	0.0002850303020172
7.3747	0.0002850358595088
7.3757	0.0002850414170004
7.3767	0.0002850469744921
7.3777	0.0002850525319837
7.3787	0.0002850580894754
7.3797	0.0002850636469670
7.3807	0.0002850692044586
7.3817	0.0002850747619503
7.3827	0.0002850803194419
7.3837	0.0002850858769335
7.3847	0.0002850914344252
7.3857	0.0002850969919168
7.3867	0.0002851025494084
7.3877	0.0002851081069001
7.3887	0.0002851136643917
7.3897	0.0002851192218833
7.3907	0.0002851247793750
7.3917	0.0002851303368666
7.3927	0.0002851358943582
7.3937	0.0002851414518499
7.3947	0.0002851470093415
7.3957	0.0002851525668332
7.3967	0.0002851581243248
7.3977	0.0002851636818164
7.3987	0.0002851692393081
7.3997	0.0002851747967997
7.4007	0.0002851803542913
7.4017	0.0002851859117830
7.4027	0.0002851914692746
7.4037	0.0002851970267662
7.4047	0.0002852025842579
7.4057	0.0002852081417495
7.4067	0.0002852136992411
7.4077	0.0002852192567328
7.4087	0.0002852248142244
7.4097	0.0002852303717160
7.4107	0.0002852359292077
7.4117	0.0002852414866993
7.4127	0.0002852470441910
7.4137	0.0002852526016826
7.4147	0.0002852581591742
7.4157	0.0002852637166659
7.4167	0.0002852692741575
7.4177	0.0002852748316491
7.4187	0.0002852803891408
7.4197	0.0002852859466324
7.4207	0.0002852915041240
7.4217	0.0002852970616157
7.4227	0.0002853026191073
7.4237	0.0002853081765989
7.4247	0.0002853137340906
7.4257	0.0002853192915822
7.4267	0.0002853248490738
7.4277	0.0002853304065655
7.4287	0.0002853359640571
7.4297	0.0002853415215488
7.4307	0.0002853470790404
7.4317	0.0002853526365320
7.4327	0.0002853581940237
7.4337	0.0002853637515153
7.4347	0.0002853693090069
7.4357	0.0002853748664986
7.4367	0.0002853804239902
7.4377	0.0002853859814818
7.4387	0.0002853915389735
7.4397	0.0002853970964651
7.4407	0.0002854026539567
7.4417	0.0002854082114484
7.4427	0.0002854137689400
7.4437	0.0002854193264316
7.4447	0.0002854248839233
7.4457	0.0002854304414149
7.4467	0.0002854359989065
7.4477	0.0002854415563982
7.4487	0.0002854471138898
7.4497	0.0002854526713815
7.4507	0.0002854582288731
7.4517	0.0002854637863647
7.4527	0.0002854693438564
7.4537	0.0002854749013480
7.4547	0.0002854804588396
7.4557	0.0002854860163313
7.4567	0.0002854915738229
7.4577	0.0002854971313145
7.4587	0.0002855026888062
7.4597	0.0002855082462978
7.4607	0.0002855138037894
7.4617	0.0002855193612811
7.4627	0.0002855249187727
7.4637	0.0002855304762643
7.4647	0.0002855360337560
7.4657	0.0002855415912476
7.4667	0.0002855471487393
7.4677	0.0002855527062309
7.4687	0.0002855582637225
7.4697	0.0002855638212142
7.4707	0.0002855693787058
7.4717	0.0002855749361974
7.4727	0.0002855804936891
7.4737	0.0002855860511807
7.4747	0.0002855916086723
7.4757	0.0002855971661640
7.4767	0.0002856027236556
7.4777	0.0002856082811472
7.4787	0.0002856138386389
7.4797	0.0002856193961305
7.4807	0.0002856249536221
7.4817	0.0002856305111138
7.4827	0.0002856360686054
7.4837	0.0002856416260971
7.4847	0.0002856471835887
7.4857	0.0002856527410803
7.4867	0.0002856582985720
7.4877	0.0002856638560636
7.4887	0.0002856694135552
7.4897	0.0002856749710469
7.4907	0.0002856805285385
7.4917	0.0002856860860301
7.4927	0.0002856916435218
7.4937	0.0002856972010134
7.4947	0.0002857027585050
7.4957	0.0002857083159967
7.4967	0.0002857138734883
7.4977	0.0002857194309799
7.4987	0.0002857249884716
7.4997	0.0002857305459632
7.5007	0.0002857361034549
7.5017	0.0002857416609465
7.5027	0.0002857472184381
7.5037	0.0002857527759298
7.5047	0.0002857583334214
7.5057	0.0002857638909130
7.5067	0.0002857694484047
7.5077	0.0002857750058963
7.5087	0.0002857805633879
7.5097	0.0002857861208796
7.5107	0.0002857916783712
7.5117	0.0002857972358628
7.5127	0.0002858027933545
7.5137	0.0002858083508461
7.5147	0.0002858139083377
7.5157	0.0002858194658294
7.5167	0.0002858250233210
7.5177	0.0002858305808127
7.5187	0.0002858361383043
7.5197	0.0002858416957959
7.5207	0.0002858472532876
7.5217	0.0002858528107792
7.5227	0.0002858583682708
7.5237	0.0002858639257625
7.5247	0.0002858694832541
7.5257	0.0002858750407457
7.5267	0.0002858805982374
7.5277	0.0002858861557290
7.5287	0.0002858917132206
7.5297	0.0002858972707123
7.5307	0.0002859028282039
7.5317	0.0002859083856955
7.5327	0.0002859139431872
7.5337	0.0002859195006788
7.5347	0.0002859250581705
7.5357	0.0002859306156621
7.5367	0.0002859361731537
7.5377	0.0002859417306454
7.5387	0.0002859472881370
7.5397	0.0002859528456286
7.5407	0.0002859584031203
7.5417	0.0002859639606119
7.5427	0.0002859695181035
7.5437	0.0002859750755952
7.5447	0.0002859806330868
7.5457	0.0002859861905784
7.5467	0.0002859917480701
7.5477	0.0002859973055617
7.5487	0.0002860028630533
7.5497	0.0002860084205450
7.5507	0.0002860139780366
7.5517	0.0002860195355282
7.5527	0.0002860250930199
7.5537	0.0002860306505115
7.5547	0.0002860362080032
7.5557	0.0002860417654948
7.5567	0.0002860473229864
7.5577	0.0002860528804781
7.5587	0.0002860584379697
7.5597	0.0002860639954613
7.5607	0.0002860695529530
7.5617	0.0002860751104446
7.5627	0.0002860806679362
7.5637	0.0002860862254279
7.5647	0.0002860917829195
7.5657	0.0002860973404111
7.5667	0.0002861028979028
7.5677	0.0002861084553944
7.5687	0.0002861140128860
7.5697	0.0002861195703777
7.5707	0.0002861251278693
7.5717	0.0002861306853610
7.5727	0.0002861362428526
7.5737	0.0002861418003442
7.5747	0.0002861473578359
7.5757	0.0002861529153275
7.5767	0.0002861584728191
7.5777	0.0002861640303108
7.5787	0.0002861695878024
7.5797	0.0002861751452940
7.5807	0.0002861807027857
7.5817	0.0002861862602773
7.5827	0.0002861918177689
7.5837	0.0002861973752606
7.5847	0.0002862029327522
7.5857	0.0002862084902438
7.5867	0.0002862140477355
7.5877	0.0002862196052271
7.5887	0.0002862251627188
7.5897	0.0002862307202104
7.5907	0.0002862362777020
7.5917	0.0002862418351937
7.5927	0.0002862473926853
7.5937	0.0002862529501769
7.5947	0.0002862585076686
7.5957	0.0002862640651602
7.5967	0.0002862696226518
7.5977	0.0002862751801435
7.5987	0.0002862807376351
7.5997	0.0002862862951267
7.6007	0.0002862918526184
7.6017	0.0002862974101100
7.6027	0.0002863029676016
7.6037	0.0002863085250933
7.6047	0.0002863140825849
7.6057	0.0002863196400766
7.6067	0.0002863251975682
7.6077	0.0002863307550598
7.6087	0.0002863363125515
7.6097	0.0002863418700431
7.6107	0.0002863474275347
7.6117	0.0002863529850264
7.6127	0.0002863585425180
7.6137	0.0002863641000096
7.6147	0.0002863696575013
7.6157	0.0002863752149929
7.6167	0.0002863807724845
7.6177	0.0002863863299762
7.6187	0.0002863918874678
7.6197	0.0002863974449594
7.6207	0.0002864030024511
7.6217	0.0002864085599427
7.6227	0.0002864141174344
7.6237	0.0002864196749260
7.6247	0.0002864252324176
7.6257	0.0002864307899093
7.6267	0.0002864363474009
7.6277	0.0002864419048925
7.6287	0.0002864474623842
7.6297	0.0002864530198758
7.6307	0.0002864585773674
7.6317	0.0002864641348591
7.6327	0.0002864696923507
7.6337	0.0002864752498423
7.6347	0.0002864808073340
7.6357	0.0002864863648256
7.6367	0.0002864919223172
7.6377	0.0002864974798089
7.6387	0.0002865030373005
7.6397	0.0002865085947922
7.6407	0.0002865141522838
7.6417	0.0002865197097754
7.6427	0.0002865252672671
7.6437	0.0002865308247587
7.6447	0.0002865363822503
7.6457	0.0002865419397420
7.6467	0.0002865474972336
7.6477	0.0002865530547252
7.6487	0.0002865586122169
7.6497	0.0002865641697085
7.6507	0.0002865697272001
7.6517	0.0002865752846918
7.6527	0.0002865808421834
7.6537	0.0002865863996750
7.6547	0.0002865919571667
7.6557	0.0002865975146583
7.6567	0.0002866030721500
7.6577	0.0002866086296416
7.6587	0.0002866141871332
7.6597	0.0002866197446249
7.6607	0.0002866253021165
7.6617	0.0002866308596081
7.6627	0.0002866364170998
7.6637	0.0002866419745914
7.6647	0.0002866475320830
7.6657	0.0002866530895747
7.6667	0.0002866586470663
7.6677	0.0002866642045579
7.6687	0.0002866697620496
7.6697	0.0002866753195412
7.6707	0.0002866808770328
7.6717	0.0002866864345245
7.6727	0.0002866919920161
7.6737	0.0002866975495077
7.6747	0.0002867031069994
7.6757	0.0002867086644910
7.6767	0.0002867142219827
7.6777	0.0002867197794743
7.6787	0.0002867253369659
7.6797	0.0002867308944576
7.6807	0.0002867364519492
7.6817	0.0002867420094408
7.6827	0.0002867475669325
7.6837	0.0002867531244241
7.6847	0.0002867586819157
7.6857	0.0002867642394074
7.6867	0.0002867697968990
7.6877	0.0002867753543906
7.6887	0.0002867809118823
7.6897	0.0002867864693739
7.6907	0.0002867920268655
7.6917	0.0002867975843572
7.6927	0.0002868031418488
7.6937	0.0002868086993405
7.6947	0.0002868142568321
7.6957	0.0002868198143237
7.6967	0.0002868253718154
7.6977	0.0002868309293070
7.6987	0.0002868364867986
7.6997	0.0002868420442903
7.7007	0.0002868476017819
7.7017	0.0002868531592735
7.7027	0.0002868587167652
7.7037	0.0002868642742568
7.7047	0.0002868698317484
7.7057	0.0002868753892401
7.7067	0.0002868809467317
7.7077	0.0002868865042233
7.7087	0.0002868920617150
7.7097	0.0002868976192066
7.7107	0.0002869031766983
7.7117	0.0002869087341899
7.7127	0.0002869142916815
7.7137	0.0002869198491732
7.7147	0.0002869254066648
7.7157	0.0002869309641564
7.7167	0.0002869365216481
7.7177	0.0002869420791397
7.7187	0.0002869476366313
7.7197	0.0002869531941230
7.7207	0.0002869587516146
7.7217	0.0002869643091062
7.7227	0.0002869698665979
7.7237	0.0002869754240895
7.7247	0.0002869809815811
7.7257	0.0002869865390728
7.7267	0.0002869920965644
7.7277	0.0002869976540561
7.7287	0.0002870032115477
7.7297	0.0002870087690393
7.7307	0.0002870143265310
7.7317	0.0002870198840226
7.7327	0.0002870254415142
7.7337	0.0002870309990059
7.7347	0.0002870365564975
7.7357	0.0002870421139891
7.7367	0.0002870476714808
7.7377	0.0002870532289724
7.7387	0.0002870587864640
7.7397	0.0002870643439557
7.7407	0.0002870699014473
7.7417	0.0002870754589389
7.7427	0.0002870810164306
7.7437	0.0002870865739222
7.7447	0.0002870921314139
7.7457	0.0002870976889055
7.7467	0.0002871032463971
7.7477	0.0002871088038888
7.7487	0.0002871143613804
7.7497	0.0002871199188720
7.7507	0.0002871254763637
7.7517	0.0002871310338553
7.7527	0.0002871365913469
7.7537	0.0002871421488386
7.7547	0.0002871477063302
7.7557	0.0002871532638218
7.7567	0.0002871588213135
7.7577	0.0002871643788051
7.7587	0.0002871699362967
7.7597	0.0002871754937884
7.7607	0.0002871810512800
7.7617	0.0002871866087717
7.7627	0.0002871921662633
7.7637	0.0002871977237549
7.7647	0.0002872032812466
7.7657	0.0002872088387382
7.7667	0.0002872143962298
7.7677	0.0002872199537215
7.7687	0.0002872255112131
7.7697	0.0002872310687047
7.7707	0.0002872366261964
7.7717	0.0002872421836880
7.7727	0.0002872477411796
7.7737	0.0002872532986713
7.7747	0.0002872588561629
7.7757	0.0002872644136545
7.7767	0.0002872699711462
7.7777	0.0002872755286378
7.7787	0.0002872810861294
7.7797	0.0002872866436211
7.7807	0.0002872922011127
7.7817	0.0002872977586044
7.7827	0.0002873033160960
7.7837	0.0002873088735876
7.7847	0.0002873144310793
7.7857	0.0002873199885709
7.7867	0.0002873255460625
7.7877	0.0002873311035542
7.7887	0.0002873366610458
7.7897	0.0002873422185374
7.7907	0.0002873477760291
7.7917	0.0002873533335207
7.7927	0.0002873588910123
7.7937	0.0002873644485040
7.7947	0.0002873700059956
7.7957	0.0002873755634872
7.7967	0.0002873811209789
7.7977	0.0002873866784705
7.7987	0.0002873922359622
7.7997	0.0002873977934538
7.8007	0.0002874033509454
7.8017	0.0002874089084371
7.8027	0.0002874144659287
7.8037	0.0002874200234203
7.8047	0.0002874255809120
7.8057	0.0002874311384036
7.8067	0.0002874366958952
7.8077	0.0002874422533869
7.8087	0.0002874478108785
7.8097	0.0002874533683701
7.8107	0.0002874589258618
7.8117	0.0002874644833534
7.8127	0.0002874700408450
7.8137	0.0002874755983367
7.8147	0.0002874811558283
7.8157	0.0002874867133200
7.8167	0.0002874922708116
7.8177	0.0002874978283032
7.8187	0.0002875033857949
7.8197	0.0002875089432865
7.8207	0.0002875145007781
7.8217	0.0002875200582698
7.8227	0.0002875256157614
7.8237	0.0002875311732530
7.8247	0.0002875367307447
7.8257	0.0002875422882363
7.8267	0.0002875478457279
7.8277	0.0002875534032196
7.8287	0.0002875589607112
7.8297	0.0002875645182028
7.8307	0.0002875700756945
7.8317	0.0002875756331861
7.8327	0.0002875811906778
7.8337	0.0002875867481694
7.8347	0.0002875923056610
7.8357	0.0002875978631527
7.8367	0.0002876034206443
7.8377	0.0002876089781359
7.8387	0.0002876145356276
7.8397	0.0002876200931192
7.8407	0.0002876256506108
7.8417	0.0002876312081025
7.8427	0.0002876367655941
7.8437	0.0002876423230857
7.8447	0.0002876478805774
7.8457	0.0002876534380690
7.8467	0.0002876589955606
7.8477	0.0002876645530523
7.8487	0.0002876701105439
7.8497	0.0002876756680356
7.8507	0.0002876812255272
7.8517	0.0002876867830188
7.8527	0.0002876923405105
7.8537	0.0002876978980021
7.8547	0.0002877034554937
7.8557	0.0002877090129854
7.8567	0.0002877145704770
7.8577	0.0002877201279686
7.8587	0.0002877256854603
7.8597	0.0002877312429519
7.8607	0.0002877368004435
7.8617	0.0002877423579352
7.8627	0.0002877479154268
7.8637	0.0002877534729184
7.8647	0.0002877590304101
7.8657	0.0002877645879017
7.8667	0.0002877701453934
7.8677	0.0002877757028850
7.8687	0.0002877812603766
7.8697	0.0002877868178683
7.8707	0.0002877923753599
7.8717	0.0002877979328515
7.8727	0.0002878034903432
7.8737	0.0002878090478348
7.8747	0.0002878146053264
7.8757	0.0002878201628181
7.8767	0.0002878257203097
7.8777	0.0002878312778013
7.8787	0.0002878368352930
7.8797	0.0002878423927846
7.8807	0.0002878479502762
7.8817	0.0002878535077679
7.8827	0.0002878590652595
7.8837	0.0002878646227511
7.8847	0.0002878701802428
7.8857	0.0002878757377344
7.8867	0.0002878812952261
7.8877	0.0002878868527177
7.8887	0.0002878924102093
7.8897	0.0002878979677010
7.8907	0.0002879035251926
7.8917	0.0002879090826842
7.8927	0.0002879146401759
7.8937	0.0002879201976675
7.8947	0.0002879257551591
7.8957	0.0002879313126508
7.8967	0.0002879368701424
7.8977	0.0002879424276340
7.8987	0.0002879479851257
7.8997	0.0002879535426173
7.9007	0.0002879591001089
7.9017	0.0002879646576006
7.9027	0.0002879702150922
7.9037	0.0002879757725839
7.9047	0.0002879813300755
7.9057	0.0002879868875671
7.9067	0.0002879924450588
7.9077	0.0002879980025504
7.9087	0.0002880035600420
7.9097	0.0002880091175337
7.9107	0.0002880146750253
7.9117	0.0002880202325169
7.9127	0.0002880257900086
7.9137	0.0002880313475002
7.9147	0.0002880369049918
7.9157	0.0002880424624835
7.9167	0.0002880480199751
7.9177	0.0002880535774667
7.9187	0.0002880591349584
7.9197	0.0002880646924500
7.9207	0.0002880702499417
7.9217	0.0002880758074333
7.9227	0.0002880813649249
7.9237	0.0002880869224166
7.9247	0.0002880924799082
7.9257	0.0002880980373998
7.9267	0.0002881035948915
7.9277	0.0002881091523831
7.9287	0.0002881147098747
7.9297	0.0002881202673664
7.9307	0.0002881258248580
7.9317	0.0002881313823496
7.9327	0.0002881369398413
7.9337	0.0002881424973329
7.9347	0.0002881480548245
7.9357	0.0002881536123162
7.9367	0.0002881591698078
7.9377	0.0002881647272995
7.9387	0.0002881702847911
7.9397	0.0002881758422827
7.9407	0.0002881813997744
7.9417	0.0002881869572660
7.9427	0.0002881925147576
7.9437	0.0002881980722493
7.9447	0.0002882036297409
7.9457	0.0002882091872325
7.9467	0.0002882147447242
7.9477	0.0002882203022158
7.9487	0.0002882258597074
7.9497	0.0002882314171991
7.9507	0.0002882369746907
7.9517	0.0002882425321823
7.9527	0.0002882480896740
7.9537	0.0002882536471656
7.9547	0.0002882592046573
7.9557	0.0002882647621489
7.9567	0.0002882703196405
7.9577	0.0002882758771322
7.9587	0.0002882814346238
7.9597	0.0002882869921154
7.9607	0.0002882925496071
7.9617	0.0002882981070987
7.9627	0.0002883036645903
7.9637	0.0002883092220820
7.9647	0.0002883147795736
7.9657	0.0002883203370652
7.9667	0.0002883258945569
7.9677	0.0002883314520485
7.9687	0.0002883370095401
7.9697	0.0002883425670318
7.9707	0.0002883481245234
7.9717	0.0002883536820151
7.9727	0.0002883592395067
7.9737	0.0002883647969983
7.9747	0.0002883703544900
7.9757	0.0002883759119816
7.9767	0.0002883814694732
7.9777	0.0002883870269649
7.9787	0.0002883925844565
7.9797	0.0002883981419481
7.9807	0.0002884036994398
7.9817	0.0002884092569314
7.9827	0.0002884148144230
7.9837	0.0002884203719147
7.9847	0.0002884259294063
7.9857	0.0002884314868979
7.9867	0.0002884370443896
7.9877	0.0002884426018812
7.9887	0.0002884481593729
7.9897	0.0002884537168645
7.9907	0.0002884592743561
7.9917	0.0002884648318478
7.9927	0.0002884703893394
7.9937	0.0002884759468310
7.9947	0.0002884815043227
7.9957	0.0002884870618143
7.9967	0.0002884926193059
7.9977	0.0002884981767976
7.9987	0.0002885037342892
7.9997	0.0002885092917808
8.0007	0.0002885148492725
8.0017	0.0002885204067641
8.0027	0.0002885259642557
8.0037	0.0002885315217474
8.0047	0.0002885370792390
8.0057	0.0002885426367306
8.0067	0.0002885481942223
8.0077	0.0002885537517139
8.0087	0.0002885593092056
8.0097	0.0002885648666972
8.0107	0.0002885704241888
8.0117	0.0002885759816805
8.0127	0.0002885815391721
8.0137	0.0002885870966637
8.0147	0.0002885926541554
8.0157	0.0002885982116470
8.0167	0.0002886037691386
8.0177	0.0002886093266303
8.0187	0.0002886148841219
8.0197	0.0002886204416135
8.0207	0.0002886259991052
8.0217	0.0002886315565968
8.0227	0.0002886371140884
8.0237	0.0002886426715801
8.0247	0.0002886482290717
8.0257	0.0002886537865634
8.0267	0.0002886593440550
8.0277	0.0002886649015466
8.0287	0.0002886704590383
8.0297	0.0002886760165299
8.0307	0.0002886815740215
8.0317	0.0002886871315132
8.0327	0.0002886926890048
8.0337	0.0002886982464964
8.0347	0.0002887038039881
8.0357	0.0002887093614797
8.0367	0.0002887149189713
8.0377	0.0002887204764630
8.0387	0.0002887260339546
8.0397	0.0002887315914462
8.0407	0.0002887371489379
8.0417	0.0002887427064295
8.0427	0.0002887482639212
8.0437	0.0002887538214128
8.0447	0.0002887593789044
8.0457	0.0002887649363961
8.0467	0.0002887704938877
8.0477	0.0002887760513793
8.0487	0.0002887816088710
8.0497	0.0002887871663626
8.0507	0.0002887927238542
8.0517	0.0002887982813459
8.0527	0.0002888038388375
8.0537	0.0002888093963291
8.0547	0.0002888149538208
8.0557	0.0002888205113124
8.0567	0.0002888260688040
8.0577	0.0002888316262957
8.0587	0.0002888371837873
8.0597	0.0002888427412790
8.0607	0.0002888482987706
8.0617	0.0002888538562622
8.0627	0.0002888594137539
8.0637	0.0002888649712455
8.0647	0.0002888705287371
8.0657	0.0002888760862288
8.0667	0.0002888816437204
8.0677	0.0002888872012120
8.0687	0.0002888927587037
8.0697	0.0002888983161953
8.0707	0.0002889038736869
8.0717	0.0002889094311786
8.0727	0.0002889149886702
8.0737	0.0002889205461618
8.0747	0.0002889261036535
8.0757	0.0002889316611451
8.0767	0.0002889372186368
8.0777	0.0002889427761284
8.0787	0.0002889483336200
8.0797	0.0002889538911117
8.0807	0.0002889594486033
8.0817	0.0002889650060949
8.0827	0.0002889705635866
8.0837	0.0002889761210782
8.0847	0.0002889816785698
8.0857	0.0002889872360615
8.0867	0.0002889927935531
8.0877	0.0002889983510447
8.0887	0.0002890039085364
8.0897	0.0002890094660280
8.0907	0.0002890150235196
8.0917	0.0002890205810113
8.0927	0.0002890261385029
8.0937	0.0002890316959946
8.0947	0.0002890372534862
8.0957	0.0002890428109778
8.0967	0.0002890483684695
8.0977	0.0002890539259611
8.0987	0.0002890594834527
8.0997	0.0002890650409444
8.1007	0.0002890705984360
8.1017	0.0002890761559276
8.1027	0.0002890817134193
8.1037	0.0002890872709109
8.1047	0.0002890928284025
8.1057	0.0002890983858942
8.1067	0.0002891039433858
8.1077	0.0002891095008774
8.1087	0.0002891150583691
8.1097	0.0002891206158607
8.1107	0.0002891261733523
8.1117	0.0002891317308440
8.1127	0.0002891372883356
8.1137	0.0002891428458273
8.1147	0.0002891484033189
8.1157	0.0002891539608105
8.1167	0.0002891595183022
8.1177	0.0002891650757938
8.1187	0.0002891706332854
8.1197	0.0002891761907771
8.1207	0.0002891817482687
8.1217	0.0002891873057603
8.1227	0.0002891928632520
8.1237	0.0002891984207436
8.1247	0.0002892039782352
8.1257	0.0002892095357269
8.1267	0.0002892150932185
8.1277	0.0002892206507101
8.1287	0.0002892262082018
8.1297	0.0002892317656934
8.1307	0.0002892373231851
8.1317	0.0002892428806767
8.1327	0.0002892484381683
8.1337	0.0002892539956600
8.1347	0.0002892595531516
8.1357	0.0002892651106432
8.1367	0.0002892706681349
8.1377	0.0002892762256265
8.1387	0.0002892817831181
8.1397	0.0002892873406098
8.1407	0.0002892928981014
8.1417	0.0002892984555930
8.1427	0.0002893040130847
8.1437	0.0002893095705763
8.1447	0.0002893151280679
8.1457	0.0002893206855596
8.1467	0.0002893262430512
8.1477	0.0002893318005429
8.1487	0.0002893373580345
8.1497	0.0002893429155261
8.1507	0.0002893484730178
8.1517	0.0002893540305094
8.1527	0.0002893595880010
8.1537	0.0002893651454927
8.1547	0.0002893707029843
8.1557	0.0002893762604759
8.1567	0.0002893818179676
8.1577	0.0002893873754592
8.1587	0.0002893929329508
8.1597	0.0002893984904425
8.1607	0.0002894040479341
8.1617	0.0002894096054257
8.1627	0.0002894151629174
8.1637	0.0002894207204090
8.1647	0.0002894262779007
8.1657	0.0002894318353923
8.1667	0.0002894373928839
8.1677	0.0002894429503756
8.1687	0.0002894485078672
8.1697	0.0002894540653588
8.1707	0.0002894596228505
8.1717	0.0002894651803421
8.1727	0.0002894707378337
8.1737	0.0002894762953254
8.1747	0.0002894818528170
8.1757	0.0002894874103086
8.1767	0.0002894929678003
8.1777	0.0002894985252919
8.1787	0.0002895040827835
8.1797	0.0002895096402752
8.1807	0.0002895151977668
8.1817	0.0002895207552585
8.1827	0.0002895263127501
8.1837	0.0002895318702417
8.1847	0.0002895374277334
8.1857	0.0002895429852250
8.1867	0.0002895485427166
8.1877	0.0002895541002083
8.1887	0.0002895596576999
8.1897	0.0002895652151915
8.1907	0.0002895707726832
8.1917	0.0002895763301748
8.1927	0.0002895818876664
8.1937	0.0002895874451581
8.1947	0.0002895930026497
8.1957	0.0002895985601413
8.1967	0.0002896041176330
8.1977	0.0002896096751246
8.1987	0.0002896152326163
8.1997	0.0002896207901079
8.2007	0.0002896263475995
8.2017	0.0002896319050912
8.2027	0.0002896374625828
8.2037	0.0002896430200744
8.2047	0.0002896485775661
8.2057	0.0002896541350577
8.2067	0.0002896596925493
8.2077	0.0002896652500410
8.2087	0.0002896708075326
8.2097	0.0002896763650242
8.2107	0.0002896819225159
8.2117	0.0002896874800075
8.2127	0.0002896930374991
8.2137	0.0002896985949908
8.2147	0.0002897041524824
8.2157	0.0002897097099741
8.2167	0.0002897152674657
8.2177	0.0002897208249573
8.2187	0.0002897263824490
8.2197	0.0002897319399406
8.2207	0.0002897374974322
8.2217	0.0002897430549239
8.2227	0.0002897486124155
8.2237	0.0002897541699071
8.2247	0.0002897597273988
8.2257	0.0002897652848904
8.2267	0.0002897708423820
8.2277	0.0002897763998737
8.2287	0.0002897819573653
8.2297	0.0002897875148569
8.2307	0.0002897930723486
8.2317	0.0002897986298402
8.2327	0.0002898041873318
8.2337	0.0002898097448235
8.2347	0.0002898153023151
8.2357	0.0002898208598068
8.2367	0.0002898264172984
8.2377	0.0002898319747900
8.2387	0.0002898375322817
8.2397	0.0002898430897733
8.2407	0.0002898486472649
8.2417	0.0002898542047566
8.2427	0.0002898597622482
8.2437	0.0002898653197398
8.2447	0.0002898708772315
8.2457	0.0002898764347231
8.2467	0.0002898819922147
8.2477	0.0002898875497064
8.2487	0.0002898931071980
8.2497	0.0002898986646896
8.2507	0.0002899042221813
8.2517	0.0002899097796729
8.2527	0.0002899153371646
8.2537	0.0002899208946562
8.2547	0.0002899264521478
8.2557	0.0002899320096395
8.2567	0.0002899375671311
8.2577	0.0002899431246227
8.2587	0.0002899486821144
8.2597	0.0002899542396060
8.2607	0.0002899597970976
8.2617	0.0002899653545893
8.2627	0.0002899709120809
8.2637	0.0002899764695725
8.2647	0.0002899820270642
8.2657	0.0002899875845558
8.2667	0.0002899931420474
8.2677	0.0002899986995391
8.2687	0.0002900042570307
8.2697	0.0002900098145224
8.2707	0.0002900153720140
8.2717	0.0002900209295056
8.2727	0.0002900264869973
8.2737	0.0002900320444889
8.2747	0.0002900376019805
8.2757	0.0002900431594722
8.2767	0.0002900487169638
8.2777	0.0002900542744554
8.2787	0.0002900598319471
8.2797	0.0002900653894387
8.2807	0.0002900709469303
8.2817	0.0002900765044220
8.2827	0.0002900820619136
8.2837	0.0002900876194052
8.2847	0.0002900931768969
8.2857	0.0002900987343885
8.2867	0.0002901042918802
8.2877	0.0002901098493718
8.2887	0.0002901154068634
8.2897	0.0002901209643551
8.2907	0.0002901265218467
8.2917	0.0002901320793383
8.2927	0.0002901376368300
8.2937	0.0002901431943216
8.2947	0.0002901487518132
8.2957	0.0002901543093049
8.2967	0.0002901598667965
8.2977	0.0002901654242881
8.2987	0.0002901709817798
8.2997	0.0002901765392714
8.3007	0.0002901820967630
8.3017	0.0002901876542547
8.3027	0.0002901932117463
8.3037	0.0002901987692380
8.3047	0.0002902043267296
8.3057	0.0002902098842212
8.3067	0.0002902154417129
8.3077	0.0002902209992045
8.3087	0.0002902265566961
8.3097	0.0002902321141878
8.3107	0.0002902376716794
8.3117	0.0002902432291710
8.3127	0.0002902487866627
8.3137	0.0002902543441543
8.3147	0.0002902599016459
8.3157	0.0002902654591376
8.3167	0.0002902710166292
8.3177	0.0002902765741208
8.3187	0.0002902821316125
8.3197	0.0002902876891041
8.3207	0.0002902932465958
8.3217	0.0002902988040874
8.3227	0.0002903043615790
8.3237	0.0002903099190707
8.3247	0.0002903154765623
8.3257	0.0002903210340539
8.3267	0.0002903265915456
8.3277	0.0002903321490372
8.3287	0.0002903377065288
8.3297	0.0002903432640205
8.3307	0.0002903488215121
8.3317	0.0002903543790037
8.3327	0.0002903599364954
8.3337	0.0002903654939870
8.3347	0.0002903710514786
8.3357	0.0002903766089703
8.3367	0.0002903821664619
8.3377	0.0002903877239535
8.3387	0.0002903932814452
8.3397	0.0002903988389368
8.3407	0.0002904043964285
8.3417	0.0002904099539201
8.3427	0.0002904155114117
8.3437	0.0002904210689034
8.3447	0.0002904266263950
8.3457	0.0002904321838866
8.3467	0.0002904377413783
8.3477	0.0002904432988699
8.3487	0.0002904488563615
8.3497	0.0002904544138532
8.3507	0.0002904599713448
8.3517	0.0002904655288364
8.3527	0.0002904710863281
8.3537	0.0002904766438197
8.3547	0.0002904822013113
8.3557	0.0002904877588030
8.3567	0.0002904933162946
8.3577	0.0002904988737863
8.3587	0.0002905044312779
8.3597	0.0002905099887695
8.3607	0.0002905155462612
8.3617	0.0002905211037528
8.3627	0.0002905266612444
8.3637	0.0002905322187361
8.3647	0.0002905377762277
8.3657	0.0002905433337193
8.3667	0.0002905488912110
8.3677	0.0002905544487026
8.3687	0.0002905600061942
8.3697	0.0002905655636859
8.3707	0.0002905711211775
8.3717	0.0002905766786691
8.3727	0.0002905822361608
8.3737	0.0002905877936524
8.3747	0.0002905933511441
8.3757	0.0002905989086357
8.3767	0.0002906044661273
8.3777	0.0002906100236190
8.3787	0.0002906155811106
8.3797	0.0002906211386022
8.3807	0.0002906266960939
8.3817	0.0002906322535855
8.3827	0.0002906378110771
8.3837	0.0002906433685688
8.3847	0.0002906489260604
8.3857	0.0002906544835520
8.3867	0.0002906600410437
8.3877	0.0002906655985353
8.3887	0.0002906711560269
8.3897	0.0002906767135186
8.3907	0.0002906822710102
8.3917	0.0002906878285019
8.3927	0.0002906933859935
8.3937	0.0002906989434851
8.3947	0.0002907045009768
8.3957	0.0002907100584684
8.3967	0.0002907156159600
8.3977	0.0002907211734517
8.3987	0.0002907267309433
8.3997	0.0002907322884349
8.4007	0.0002907378459266
8.4017	0.0002907434034182
8.4027	0.0002907489609098
8.4037	0.0002907545184015
8.4047	0.0002907600758931
8.4057	0.0002907656333847
8.4067	0.0002907711908764
8.4077	0.0002907767483680
8.4087	0.0002907823058597
8.4097	0.0002907878633513
8.4107	0.0002907934208429
8.4117	0.0002907989783346
8.4127	0.0002908045358262
8.4137	0.0002908100933178
8.4147	0.0002908156508095
8.4157	0.0002908212083011
8.4167	0.0002908267657927
8.4177	0.0002908323232844
8.4187	0.0002908378807760
8.4197	0.0002908434382676
8.4207	0.0002908489957593
8.4217	0.0002908545532509
8.4227	0.0002908601107425
8.4237	0.0002908656682342
8.4247	0.0002908712257258
8.4257	0.0002908767832175
8.4267	0.0002908823407091
8.4277	0.0002908878982007
8.4287	0.0002908934556924
8.4297	0.0002908990131840
8.4307	0.0002909045706756
8.4317	0.0002909101281673
8.4327	0.0002909156856589
8.4337	0.0002909212431505
8.4347	0.0002909268006422
8.4357	0.0002909323581338
8.4367	0.0002909379156254
8.4377	0.0002909434731171
8.4387	0.0002909490306087
8.4397	0.0002909545881003
8.4407	0.0002909601455920
8.4417	0.0002909657030836
8.4427	0.0002909712605753
8.4437	0.0002909768180669
8.4447	0.0002909823755585
8.4457	0.0002909879330502
8.4467	0.0002909934905418
8.4477	0.0002909990480334
8.4487	0.0002910046055251
8.4497	0.0002910101630167
8.4507	0.0002910157205083
8.4517	0.0002910212780000
8.4527	0.0002910268354916
8.4537	0.0002910323929832
8.4547	0.0002910379504749
8.4557	0.0002910435079665
8.4567	0.0002910490654581
8.4577	0.0002910546229498
8.4587	0.0002910601804414
8.4597	0.0002910657379330
8.4607	0.0002910712954247
8.4617	0.0002910768529163
8.4627	0.0002910824104080
8.4637	0.0002910879678996
8.4647	0.0002910935253912
8.4657	0.0002910990828829
8.4667	0.0002911046403745
8.4677	0.0002911101978661
8.4687	0.0002911157553578
8.4697	0.0002911213128494
8.4707	0.0002911268703410
8.4717	0.0002911324278327
8.4727	0.0002911379853243
8.4737	0.0002911435428159
8.4747	0.0002911491003076
8.4757	0.0002911546577992
8.4767	0.0002911602152908
8.4777	0.0002911657727825
8.4787	0.0002911713302741
8.4797	0.0002911768877658
8.4807	0.0002911824452574
8.4817	0.0002911880027490
8.4827	0.0002911935602407
8.4837	0.0002911991177323
8.4847	0.0002912046752239
8.4857	0.0002912102327156
8.4867	0.0002912157902072
8.4877	0.0002912213476988
8.4887	0.0002912269051905
8.4897	0.0002912324626821
8.4907	0.0002912380201737
8.4917	0.0002912435776654
8.4927	0.0002912491351570
8.4937	0.0002912546926486
8.4947	0.0002912602501403
8.4957	0.0002912658076319
8.4967	0.0002912713651236
8.4977	0.0002912769226152
8.4987	0.0002912824801068
8.4997	0.0002912880375985
8.5007	0.0002912935950901
8.5017	0.0002912991525817
8.5027	0.0002913047100734
8.5037	0.0002913102675650
8.5047	0.0002913158250566
8.5057	0.0002913213825483
8.5067	0.0002913269400399
8.5077	0.0002913324975315
8.5087	0.0002913380550232
8.5097	0.0002913436125148
8.5107	0.0002913491700064
8.5117	0.0002913547274981
8.5127	0.0002913602849897
8.5137	0.0002913658424814
8.5147	0.0002913713999730
8.5157	0.0002913769574646
8.5167	0.0002913825149563
8.5177	0.0002913880724479
8.5187	0.0002913936299395
8.5197	0.0002913991874312
8.5207	0.0002914047449228
8.5217	0.0002914103024144
8.5227	0.0002914158599061
8.5237	0.0002914214173977
8.5247	0.0002914269748893
8.5257	0.0002914325323810
8.5267	0.0002914380898726
8.5277	0.0002914436473642
8.5287	0.0002914492048559
8.5297	0.0002914547623475
8.5307	0.0002914603198392
8.5317	0.0002914658773308
8.5327	0.0002914714348224
8.5337	0.0002914769923141
8.5347	0.0002914825498057
8.5357	0.0002914881072973
8.5367	0.0002914936647890
8.5377	0.0002914992222806
8.5387	0.0002915047797722
8.5397	0.0002915103372639
8.5407	0.0002915158947555
8.5417	0.0002915214522471
8.5427	0.0002915270097388
8.5437	0.0002915325672304
8.5447	0.0002915381247220
8.5457	0.0002915436822137
8.5467	0.0002915492397053
8.5477	0.0002915547971970
8.5487	0.0002915603546886
8.5497	0.0002915659121802
8.5507	0.0002915714696719
8.5517	0.0002915770271635
8.5527	0.0002915825846551
8.5537	0.0002915881421468
8.5547	0.0002915936996384
8.5557	0.0002915992571300
8.5567	0.0002916048146217
8.5577	0.0002916103721133
8.5587	0.0002916159296049
8.5597	0.0002916214870966
8.5607	0.0002916270445882
8.5617	0.0002916326020798
8.5627	0.0002916381595715
8.5637	0.0002916437170631
8.5647	0.0002916492745547
8.5657	0.0002916548320464
8.5667	0.0002916603895380
8.5677	0.0002916659470297
8.5687	0.0002916715045213
8.5697	0.0002916770620129
8.5707	0.0002916826195046
8.5717	0.0002916881769962
8.5727	0.0002916937344878
8.5737	0.0002916992919795
8.5747	0.0002917048494711
8.5757	0.0002917104069627
8.5767	0.0002917159644544
8.5777	0.0002917215219460
8.5787	0.0002917270794376
8.5797	0.0002917326369293
8.5807	0.0002917381944209
8.5817	0.0002917437519125
8.5827	0.0002917493094042
8.5837	0.0002917548668958
