# wave	flux	error	model
# 
1.030003735999999890e+03 1.114910936200000036e+00 9.394220570000000325e-02 9.999998356782173747e-01
1.030029504000000088e+03 7.943835514999999514e-01 9.626776049999999363e-02 9.999998310997393336e-01
1.030055272999999943e+03 1.003159560000000061e+00 1.000594087000000049e-01 9.999998263265187370e-01
1.030081042000000025e+03 9.996595458999999462e-01 9.419937509999999625e-02 9.999998213475059794e-01
1.030106811999999991e+03 1.062850422899999980e+00 9.698400510000000641e-02 9.999998161504470851e-01
1.030132581999999957e+03 1.130060952800000074e+00 1.061358057000000021e-01 9.999998107225831490e-01
1.030158353000000034e+03 9.184226534999999636e-01 1.070716876000000067e-01 9.999998050497606039e-01
1.030184124999999995e+03 9.683660885999999524e-01 9.512127539999999659e-02 9.999997991169480294e-01
1.030209898000000067e+03 9.952821799000000080e-01 1.011712305999999950e-01 9.999997929079378345e-01
1.030235670999999911e+03 1.082073488900000102e+00 1.019941793999999957e-01 9.999997864054913643e-01
1.030261445000000094e+03 9.590558782000000448e-01 9.527174550000000464e-02 9.999997795904637110e-01
1.030287219000000050e+03 9.287104570999999975e-01 9.536432699999999874e-02 9.999997724426744616e-01
1.030312993999999890e+03 9.941924654999999555e-01 1.038587883000000045e-01 9.999997649396920041e-01
1.030338770000000068e+03 7.293292446000000373e-01 1.062072024000000059e-01 9.999997570574556960e-01
1.030364546000000018e+03 1.062914831300000085e+00 9.774046879999999382e-02 9.999997487701501875e-01
1.030390323000000080e+03 8.667567399000000172e-01 1.032769575000000023e-01 9.999997400490292510e-01
1.030416099999999915e+03 9.177585595999999679e-01 1.015751290000000001e-01 9.999997308634548387e-01
1.030441878999999972e+03 9.859567098000000529e-01 9.189057929999999708e-02 9.999997211788733686e-01
1.030467656999999917e+03 1.035943078100000081e+00 9.748169449999999348e-02 9.999997109594462863e-01
1.030493437000000085e+03 9.561700485999999888e-01 1.023207737000000062e-01 9.999997001634995941e-01
1.030519217000000026e+03 1.063040035300000019e+00 9.291802690000000586e-02 9.999996887474248419e-01
1.030544998000000078e+03 1.030424617800000053e+00 1.108044980000000013e-01 9.999996766619658750e-01
1.030570778999999902e+03 9.599762388000000479e-01 9.866867540000000270e-02 9.999996638538433125e-01
1.030596561999999949e+03 1.191453055200000000e+00 1.106046338999999989e-01 9.999996502627145345e-01
1.030622344000000112e+03 1.081992629399999961e+00 1.008603633000000055e-01 9.999996358245952788e-01
1.030648128000000042e+03 1.180214280800000015e+00 9.625227179999999716e-02 9.999996204651535603e-01
1.030673911999999973e+03 1.001772938300000027e+00 1.001596651000000032e-01 9.999996041048466733e-01
1.030699695999999904e+03 1.025325831700000023e+00 1.093590031000000046e-01 9.999995866539268530e-01
1.030725482000000056e+03 1.024241959000000035e+00 1.017050134999999966e-01 9.999995680107517382e-01
1.030751267999999982e+03 1.031666294799999939e+00 9.693621260000000184e-02 9.999995480645605950e-01
1.030777053999999907e+03 9.816328728000000003e-01 8.857336959999999315e-02 9.999995266896233304e-01
1.030802842000000055e+03 1.078811252599999992e+00 9.323984479999999908e-02 9.999995037426310240e-01
1.030828629999999976e+03 9.263847337999999709e-01 9.857236599999999460e-02 9.999994790654912480e-01
1.030854417999999896e+03 1.053360786700000107e+00 1.068514789000000048e-01 9.999994524773899718e-01
1.030880206999999928e+03 1.088940370200000007e+00 9.969955260000000485e-02 9.999994237717378942e-01
1.030905997000000070e+03 1.013058468000000101e+00 1.068522612000000066e-01 9.999993927139922967e-01
1.030931788000000097e+03 1.106506810299999977e+00 9.273437029999999359e-02 9.999993590356385242e-01
1.030957578999999896e+03 1.045925200699999946e+00 8.791695929999999992e-02 9.999993224294717598e-01
1.030983371000000034e+03 8.004967496999999543e-01 1.003933117000000014e-01 9.999992825378348771e-01
1.031009162999999944e+03 9.701327398000000324e-01 9.862980849999999911e-02 9.999992389489782418e-01
1.031034955999999966e+03 9.982974121000000034e-01 1.056799932000000025e-01 9.999991911792104338e-01
1.031060750000000098e+03 1.128053808400000024e+00 1.042193852999999948e-01 9.999991386629597523e-01
1.031086544000000004e+03 1.025284081499999944e+00 9.369243110000000097e-02 9.999990807349582456e-01
1.031112339000000020e+03 1.044306624899999925e+00 9.379253640000000114e-02 9.999990165987810986e-01
1.031138134999999920e+03 9.407568682000000404e-01 9.937310300000000429e-02 9.999989452961941527e-01
1.031163931000000048e+03 9.277072734000000320e-01 9.627569789999999850e-02 9.999988656400337073e-01
1.031189728000000059e+03 9.716452721999999653e-01 9.543320919999999374e-02 9.999987760314494878e-01
1.031215525999999954e+03 9.850847093000000276e-01 1.034534735999999983e-01 9.999986739153298165e-01
1.031241324000000077e+03 9.828127291999999571e-01 9.499307270000000025e-02 9.999985538771229976e-01
1.031267123000000083e+03 9.022857086000000137e-01 1.020011293000000069e-01 9.999984011057427846e-01
1.031292922000000090e+03 8.773952162999999471e-01 1.035286155999999985e-01 9.999981699926481227e-01
1.031318721999999980e+03 9.821388003000000033e-01 1.028345476000000064e-01 9.999977175382658290e-01
1.031344522999999981e+03 9.943837074000000387e-01 1.061111383999999991e-01 9.999966086982369218e-01
1.031370325000000093e+03 1.193226312499999997e+00 9.649935490000000060e-02 9.999935823814918301e-01
1.031396126999999979e+03 1.090448921099999913e+00 9.802971309999999883e-02 9.999851814489421065e-01
1.031421929999999975e+03 1.093832213600000047e+00 9.439724160000000086e-02 9.999624706259622187e-01
1.031447732999999971e+03 1.011458259000000082e+00 9.324139920000000525e-02 9.999037310391009070e-01
1.031473537000000078e+03 8.952353972000000049e-01 9.915586099999999792e-02 9.997593850493968759e-01
1.031499342000000070e+03 9.689967339999999707e-01 1.075365536000000011e-01 9.994234004401093552e-01
1.031525147000000061e+03 1.145731860900000010e+00 9.751452979999999937e-02 9.986838980422682033e-01
1.031550952999999936e+03 9.931618904000000247e-01 9.757069140000000640e-02 9.971465934074953408e-01
1.031576759999999922e+03 1.039707254699999917e+00 1.014340118999999957e-01 9.941322692632142966e-01
1.031602566999999908e+03 9.243651617000000487e-01 9.664635829999999872e-02 9.885672771741814691e-01
1.031628375000000005e+03 8.905108631999999469e-01 9.475811639999999481e-02 9.789152084013633681e-01
1.031654183000000103e+03 9.548572334999999578e-01 9.109567050000000332e-02 9.632366619825261100e-01
1.031679992999999968e+03 9.208472388999999758e-01 1.042254522999999933e-01 9.394724026073104639e-01
1.031705803000000060e+03 9.989100096999999900e-01 9.862679089999999704e-02 9.060159327171235510e-01
1.031731612999999925e+03 8.054550238000000029e-01 9.609812450000000672e-02 8.624716067084529092e-01
1.031757423999999901e+03 8.832662473000000292e-01 9.761822000000000554e-02 8.103234950016260374e-01
1.031783235999999988e+03 7.090726142000000065e-01 1.020731743999999941e-01 7.531270173825952430e-01
1.031809048000000075e+03 5.771835446999999952e-01 1.019346525000000003e-01 6.959847500341130866e-01
1.031834861000000046e+03 7.450942469000000346e-01 1.031126826000000052e-01 6.444672189606626134e-01
1.031860674999999901e+03 6.528752662000000262e-01 9.741031999999999469e-02 6.035026400244335454e-01
1.031886490000000094e+03 5.602110249999999736e-01 1.088304038000000029e-01 5.766825829761510480e-01
1.031912305000000060e+03 5.071969662999999962e-01 9.549823179999999967e-02 5.661095626212070409e-01
1.031938120000000026e+03 5.023919371999999717e-01 1.018265938000000037e-01 5.725445718606307910e-01
1.031963936999999987e+03 5.687354533999999795e-01 9.932463079999999389e-02 5.955316950224114336e-01
1.031989753999999948e+03 6.983017863999999575e-01 8.854454870000000311e-02 6.333154696292935260e-01
1.032015570999999909e+03 6.594105634000000382e-01 1.090991225000000064e-01 6.826721918137915734e-01
1.032041388999999981e+03 7.350505092000000351e-01 9.848806009999999667e-02 7.389596906016030475e-01
1.032067207999999937e+03 8.109736038999999508e-01 1.012396799999999986e-01 7.966672505583466402e-01
1.032093028000000004e+03 8.120093679000000009e-01 9.752313270000000089e-02 8.504643900277487623e-01
1.032118848000000071e+03 7.734101522999999867e-01 1.052928392000000019e-01 8.963368597316895281e-01
1.032144669000000022e+03 9.476797408999999561e-01 1.001774292000000011e-01 9.322852511566143141e-01
1.032170489999999972e+03 9.858512927000000481e-01 9.595968770000000425e-02 9.582957676986821882e-01
1.032196312000000034e+03 1.113556096800000006e+00 1.028764749999999950e-01 9.757569469588436295e-01
1.032222134999999980e+03 1.063388651899999982e+00 9.834645670000000117e-02 9.866815727757011212e-01
1.032247959000000037e+03 1.043883616900000089e+00 9.703756510000000057e-02 9.930770247857509947e-01
1.032273783000000094e+03 1.104913896200000023e+00 9.641020760000000578e-02 9.965914328831571023e-01
1.032299606999999924e+03 1.145990692400000066e+00 1.043115104000000015e-01 9.984087958970070398e-01
1.032325432999999975e+03 1.035557623200000110e+00 1.066853239000000036e-01 9.992948449558056723e-01
1.032351259000000027e+03 9.461893593000000324e-01 9.979147160000000072e-02 9.997026335485430515e-01
1.032377085000000079e+03 7.574477182000000086e-01 9.250175830000000043e-02 9.998800342661428031e-01
1.032402912999999899e+03 1.099122152400000108e+00 1.028061076000000018e-01 9.999530947089584343e-01
1.032428740999999945e+03 1.002234936100000029e+00 1.105091450999999975e-01 9.999816481656393918e-01
1.032454568999999992e+03 1.060706610200000011e+00 8.929200610000000149e-02 9.999922999315686845e-01
1.032480397999999923e+03 1.161741970700000071e+00 1.064147161999999952e-01 9.999961473066359963e-01
1.032506227999999965e+03 9.953945936000000438e-01 1.095509582000000065e-01 9.999975416118639382e-01
1.032532058999999890e+03 1.016125733300000000e+00 9.776063510000000678e-02 9.999980902156060392e-01
1.032557890000000043e+03 8.148861226000000402e-01 9.972760190000000413e-02 9.999983540435269935e-01
1.032583722000000080e+03 1.055124608899999927e+00 9.820208730000000441e-02 9.999985191534133122e-01
1.032609553999999889e+03 1.045426588200000007e+00 9.561346040000000268e-02 9.999986450602715848e-01
1.032635387000000037e+03 1.020871498200000005e+00 9.500769280000000150e-02 9.999987508601357877e-01
1.032661221000000069e+03 9.268468906000000285e-01 9.237204290000000650e-02 9.999988432610906752e-01
1.032687055999999984e+03 1.008980407699999970e+00 8.890714939999999622e-02 9.999989252215301105e-01
1.032712890999999900e+03 9.811645983000000237e-01 9.520181910000000136e-02 9.999989984837733825e-01
1.032738726000000042e+03 9.978996599999999662e-01 9.871073110000000428e-02 9.999990643124009315e-01
1.032764562999999953e+03 1.031001119799999977e+00 1.084531309999999943e-01 9.999991237180795300e-01
1.032790400000000091e+03 1.010513920499999996e+00 9.837230859999999966e-02 9.999991775260961280e-01
1.032816237000000001e+03 9.213754629999999501e-01 9.593392039999999732e-02 9.999992264326895697e-01
1.032842075999999906e+03 9.968759024000000135e-01 1.041528634000000036e-01 9.999992710299432375e-01
1.032867915000000039e+03 1.160420329599999967e+00 1.099322605000000036e-01 9.999993118152699090e-01
1.032893753999999944e+03 9.586767475999999899e-01 9.218372489999999975e-02 9.999993492180038190e-01
1.032919593999999961e+03 1.016032584299999986e+00 9.900833069999999403e-02 9.999993836090064203e-01
1.032945435000000089e+03 1.109379099799999935e+00 9.728674710000000114e-02 9.999994153076843251e-01
1.032971277000000100e+03 1.033674124000000027e+00 1.067832680000000006e-01 9.999994445916086105e-01
1.032997119000000112e+03 1.042385995999999926e+00 1.041368530999999958e-01 9.999994717020026513e-01
